% Al Density=2.699
% Energy(eV), Delta, Beta
  2000.  0.000129351261  3.03092875E-05
  2010.8833  0.000128239015  2.9748071E-05
  2021.82605  0.00012713566  2.91972392E-05
  2032.82837  0.00012603114  2.864624E-05
  2043.89026  0.000124931263  2.81011326E-05
  2055.01245  0.000123840437  2.7566397E-05
  2066.19531  0.0001227389  2.70401451E-05
  2077.43896  0.000121639772  2.65233775E-05
  2088.74365  0.000120550059  2.60164888E-05
  2100.11011  0.000119456068  2.55181731E-05
  2111.53809  0.000118367869  2.50291032E-05
  2123.02881  0.000117289208  2.45493757E-05
  2134.58154  0.00011620736  2.40781119E-05
  2146.19727  0.00011513252  2.36157375E-05
  2157.87622  0.000114067312  2.31622344E-05
  2169.6189  0.000113000016  2.27159071E-05
  2181.42529  0.000111940724  2.22779527E-05
  2193.2959  0.000110891131  2.18484456E-05
  2205.2312  0.000109840134  2.14265656E-05
  2217.23145  0.000108797838  2.10127546E-05
  2229.29688  0.000107765249  2.06069544E-05
  2241.42822  0.000106732085  2.02078991E-05
  2253.62549  0.000105708197  1.98165253E-05
  2265.88892  0.000104694001  1.94327313E-05
  2278.21924  0.00010367966  1.90555256E-05
  2290.61646  0.000102675011  1.86856487E-05
  2303.08154  0.000101679594  1.83228931E-05
  2315.61426  0.000100685684  1.7966453E-05
  2328.21509  9.97013849E-05  1.76169506E-05
  2340.88452  9.87259336E-05  1.72741602E-05
  2353.6228  9.77527161E-05  1.69371488E-05
  2366.43066  9.67889864E-05  1.66067075E-05
  2379.30811  9.58338278E-05  1.62826327E-05
  2392.25562  9.48822562E-05  1.59644169E-05
  2405.27344  9.39400707E-05  1.56524256E-05
  2418.3623  9.30060851E-05  1.53464243E-05
  2431.52246  9.2076174E-05  1.50459209E-05
  2444.75391  9.11555398E-05  1.47513038E-05
  2458.05762  9.02428146E-05  1.446226E-05
  2471.43359  8.93348697E-05  1.41781766E-05
  2484.88232  8.84360052E-05  1.38996847E-05
  2498.40454  8.75447731E-05  1.36265589E-05
  2512.  8.66586925E-05  1.33585199E-05
  2525.66968  8.57815321E-05  1.30957505E-05
  2539.41357  8.49117787E-05  1.28379943E-05
  2553.23242  8.40475041E-05  1.25849401E-05
  2567.12622  8.31920042E-05  1.23368864E-05
  2581.0957  8.23437877E-05  1.2093582E-05
  2595.14136  8.1501581E-05  1.1854816E-05
  2609.26343  8.066796E-05  1.16207648E-05
  2623.46216  7.9841433E-05  1.13911319E-05
  2637.73828  7.90211125E-05  1.11657191E-05
  2652.09229  7.82091956E-05  1.09447574E-05
  2666.52393  7.74041691E-05  1.07280675E-05
  2681.03467  7.66054873E-05  1.05155195E-05
  2695.62378  7.58150709E-05  1.03071889E-05
  2710.29248  7.50312247E-05  1.01027199E-05
  2725.0415  7.42537522E-05  9.90202352E-06
  2739.87012  7.34843561E-05  9.70531983E-06
  2754.77979  7.2721472E-05  9.51237962E-06
  2769.77026  7.19651871E-05  9.32316289E-06
  2784.84277  7.12167312E-05  9.13770873E-06
  2799.99707  7.04746562E-05  8.95578432E-06
  2815.23364  6.9739217E-05  8.77736147E-06
  2830.55347  6.90114248E-05  8.6024902E-06
  2845.95654  6.82897589E-05  8.43091766E-06
  2861.44336  6.75746924E-05  8.26264295E-06
  2877.0144  6.68671055E-05  8.09773337E-06
  2892.67041  6.61656013E-05  7.93594791E-06
  2908.41162  6.54707546E-05  7.77730656E-06
  2924.23828  6.47831985E-05  7.62183754E-06
  2940.15088  6.41015213E-05  7.46929663E-06
  2956.15063  6.3426407E-05  7.31972204E-06
  2972.23682  6.27584086E-05  7.17315197E-06
  2988.41089  6.20961582E-05  7.0294077E-06
  3004.6731  6.14404344E-05  6.88849286E-06
  3021.02344  6.07916481E-05  6.75041611E-06
  3037.46313  6.01485008E-05  6.61489503E-06
  3053.99194  5.95118436E-05  6.48204104E-06
  3070.61108  5.8881913E-05  6.35186689E-06
  3087.32031  5.82574394E-05  6.22414973E-06
  3104.12085  5.76393104E-05  6.09897916E-06
  3121.01245  5.70277589E-05  5.97631833E-06
  3137.99585  5.64215807E-05  5.85600355E-06
  3155.07227  5.58216598E-05  5.73807938E-06
  3172.24121  5.52281235E-05  5.62253172E-06
  3189.50342  5.46397787E-05  5.5091723E-06
  3206.85986  5.40575747E-05  5.39807434E-06
  3224.31055  5.34815808E-05  5.28922601E-06
  3241.85645  5.29108256E-05  5.18243587E-06
  3259.49756  5.2346124E-05  5.07779623E-06
  3277.23486  5.17874432E-05  4.97527799E-06
  3295.0686  5.12336883E-05  4.87465059E-06
  3312.99951  5.0685856E-05  4.77606591E-06
  3331.02783  5.01438444E-05  4.67946302E-06
  3349.1543  4.96067914E-05  4.58473551E-06
  3367.37939  4.90754828E-05  4.49191793E-06
  3385.70361  4.85498022E-05  4.40097028E-06
  3404.12769  4.80289673E-05  4.31177523E-06
  3422.6521  4.75137203E-05  4.22438006E-06
  3441.2771  4.70039122E-05  4.13875068E-06
  3460.00342  4.64989607E-05  4.05476248E-06
  3478.83179  4.59994299E-05  3.9724855E-06
  3497.76245  4.55051522E-05  3.89185016E-06
  3516.79639  4.50156149E-05  3.81274936E-06
  3535.93384  4.45313417E-05  3.73526268E-06
  3555.17529  4.40521653E-05  3.65933079E-06
  3574.52148  4.3577711E-05  3.58489706E-06
  3593.9729  4.31083718E-05  3.51197173E-06
  3613.53052  4.26439365E-05  3.44050682E-06
  3633.19385  4.21841287E-05  3.37044162E-06
  3652.96484  4.17292649E-05  3.3017966E-06
  3672.84326  4.12791524E-05  3.23453082E-06
  3692.82983  4.08335291E-05  3.16857336E-06
  3712.92505  4.03927261E-05  3.10396649E-06
  3733.12964  3.99565397E-05  3.04065111E-06
  3753.44409  3.95248026E-05  2.97859356E-06
  3773.86963  3.90977257E-05  2.91779679E-06
  3794.40576  3.86750798E-05  2.85821943E-06
  3815.05371  3.8256705E-05  2.79982783E-06
  3835.81421  3.78428558E-05  2.7426247E-06
  3856.6875  3.74333649E-05  2.6865664E-06
  3877.67456  3.70281377E-05  2.63161269E-06
  3898.77588  3.66273016E-05  2.57778333E-06
  3919.9917  3.62306346E-05  2.52503969E-06
  3941.323  3.58380676E-05  2.47334924E-06
  3962.77075  3.5449757E-05  2.42272108E-06
  3984.33496  3.50655137E-05  2.37308973E-06
  4006.01636  3.46853158E-05  2.32444722E-06
  4027.81641  3.43092252E-05  2.27679698E-06
  4049.73413  3.3937089E-05  2.23010466E-06
  4071.77173  3.35688637E-05  2.18435798E-06
  4093.9292  3.32046329E-05  2.13954604E-06
  4116.20703  3.28442075E-05  2.09562791E-06
  4138.60596  3.24876055E-05  2.05258971E-06
  4161.12744  3.21348562E-05  2.01043781E-06
  4183.771  3.17857957E-05  1.96912811E-06
  4206.5376  3.14404424E-05  1.92865605E-06
  4229.42871  3.10988289E-05  1.88901879E-06
  4252.44385  3.07608316E-05  1.85017052E-06
  4275.58398  3.04264631E-05  1.81211533E-06
  4298.85107  3.00957126E-05  1.77483901E-06
  4322.24414  2.97684564E-05  1.73830324E-06
  4345.76465  2.94447182E-05  1.70250644E-06
  4369.41309  2.91245015E-05  1.6674469E-06
  4393.18994  2.88075971E-05  1.63309187E-06
  4417.09619  2.84940961E-05  1.59943636E-06
  4441.13281  2.81840021E-05  1.56647729E-06
  4465.30029  2.78772241E-05  1.53417147E-06
  4489.59912  2.75737766E-05  1.50253004E-06
  4514.02979  2.72736343E-05  1.47153901E-06
  4538.59424  2.69766297E-05  1.44115347E-06
  4563.29199  2.66828483E-05  1.41139321E-06
  4588.12402  2.63922648E-05  1.38224527E-06
  4613.09082  2.61047317E-05  1.35369362E-06
  4638.19385  2.58203163E-05  1.32572848E-06
  4663.43408  2.55389914E-05  1.29834086E-06
  4688.81104  2.52606751E-05  1.2714969E-06
  4714.32568  2.49853947E-05  1.24520477E-06
  4739.97998  2.47131047E-05  1.21945823E-06
  4765.77393  2.44437197E-05  1.19421622E-06
  4791.70752  2.41772796E-05  1.16949911E-06
  4817.78271  2.39137316E-05  1.14529144E-06
  4844.  2.36529413E-05  1.12157761E-06
  4870.35938  2.33949977E-05  1.09835707E-06
  4896.8623  2.31398699E-05  1.07561323E-06
  4923.50977  2.28875197E-05  1.05331651E-06
  4950.30225  2.26379198E-05  1.03148045E-06
  4977.24023  2.23910301E-05  1.01009755E-06
  5004.32471  2.21467344E-05  9.89145633E-07
  5031.55664  2.19051053E-05  9.68630275E-07
  5058.93701  2.16661083E-05  9.48536695E-07
  5086.46631  2.14297197E-05  9.28851023E-07
  5114.14551  2.11959086E-05  9.09575476E-07
  5141.9751  2.09646387E-05  8.90693002E-07
  5169.95605  2.07358553E-05  8.72184614E-07
  5198.08984  2.05095603E-05  8.54059124E-07
  5226.37598  2.02857282E-05  8.36309482E-07
  5254.81641  2.00642971E-05  8.18926935E-07
  5283.41162  1.98452817E-05  8.01904264E-07
  5312.1626  1.96286419E-05  7.85233567E-07
  5341.06982  1.9414334E-05  7.68900634E-07
  5370.13428  1.92023654E-05  7.52909102E-07
  5399.35693  1.89927305E-05  7.37245443E-07
  5428.73877  1.87854093E-05  7.21901472E-07
  5458.28027  1.85803528E-05  7.06878495E-07
  5487.98291  1.83775173E-05  6.92158551E-07
  5517.84668  1.81768683E-05  6.77734079E-07
  5547.87305  1.79784074E-05  6.63609114E-07
  5578.06299  1.77820966E-05  6.49780588E-07
  5608.41699  1.75879031E-05  6.36240259E-07
  5638.93652  1.73958288E-05  6.22982213E-07
  5669.62207  1.72058499E-05  6.09997244E-07
  5700.47412  1.70179519E-05  5.97277563E-07
  5731.49512  1.68320967E-05  5.84824079E-07
  5762.68408  1.66482987E-05  5.72624856E-07
  5794.04248  1.64665289E-05  5.60677279E-07
  5825.57178  1.62867418E-05  5.48978051E-07
  5857.27295  1.61088938E-05  5.37518758E-07
  5889.14697  1.59329666E-05  5.26296446E-07
  5921.19336  1.57589675E-05  5.15307818E-07
  5953.41553  1.55868584E-05  5.04539287E-07
  5985.81152  1.54166391E-05  4.93988978E-07
  6018.38477  1.52482735E-05  4.83660131E-07
  6051.13525  1.50817459E-05  4.73551466E-07
  6084.06348  1.49170392E-05  4.63656903E-07
  6117.17139  1.47541277E-05  4.5396996E-07
  6150.45947  1.45929971E-05  4.44473471E-07
  6183.92871  1.44336254E-05  4.35171728E-07
  6217.57959  1.42759945E-05  4.26064076E-07
  6251.41406  1.41200835E-05  4.17144776E-07
  6285.43164  1.39658805E-05  4.08412461E-07
  6319.63525  1.38133564E-05  3.99862131E-07
  6354.0249  1.36624985E-05  3.91487475E-07
  6388.60156  1.35132877E-05  3.83286533E-07
  6423.3667  1.33657049E-05  3.75258082E-07
  6458.3208  1.32197638E-05  3.67394023E-07
  6493.46484  1.30754224E-05  3.59694866E-07
  6528.80029  1.29326554E-05  3.52156491E-07
  6564.32861  1.27914172E-05  3.44771593E-07
  6600.04932  1.26517198E-05  3.37541707E-07
  6635.96533  1.25135457E-05  3.30462825E-07
  6672.07617  1.23769105E-05  3.23530969E-07
  6708.38379  1.22417696E-05  3.16743865E-07
  6744.88867  1.21081039E-05  3.10099239E-07
  6781.59229  1.19759279E-05  3.03589417E-07
  6818.49561  1.18451953E-05  2.97215593E-07
  6855.6001  1.17158879E-05  2.90976146E-07
  6892.90625  1.15879648E-05  2.84864939E-07
  6930.41553  1.14614359E-05  2.78882709E-07
  6968.12891  1.13362912E-05  2.73025591E-07
  7006.04736  1.12125399E-05  2.67288328E-07
  7044.17236  1.10901392E-05  2.61672199E-07
  7082.50439  1.09690773E-05  2.5617345E-07
  7121.04492  1.08493641E-05  2.50787764E-07
  7159.7959  1.07309543E-05  2.4551494E-07
  7198.75781  1.06138314E-05  2.40353216E-07
  7237.93066  1.04979681E-05  2.35297179E-07
  7277.31738  1.03833663E-05  2.30347538E-07
  7316.91895  1.02700251E-05  2.25502106E-07
  7356.73535  1.01579644E-05  2.20756149E-07
  7396.76855  1.00471252E-05  2.16110493E-07
  7437.01953  9.93749018E-06  2.11561812E-07
  7477.48926  9.82903293E-06  2.07107462E-07
  7518.17969  9.72175803E-06  2.02746591E-07
  7559.0918  9.61566002E-06  1.9847694E-07
  7600.22607  9.51073889E-06  1.94295836E-07
  7641.58447  9.406961E-06  1.90202542E-07
  7683.16748  9.30432452E-06  1.86195408E-07
  7724.97705  9.20282309E-06  1.82271236E-07
  7767.01416  9.10242852E-06  1.78430184E-07
  7809.27979  9.00312898E-06  1.74668941E-07
  7851.77588  8.90491265E-06  1.70985331E-07
  7894.50244  8.80776952E-06  1.67379866E-07
  7937.4624  8.71168322E-06  1.63849833E-07
  7980.65576  8.61664648E-06  1.60394151E-07
  8024.08398  8.52264657E-06  1.57011115E-07
  8067.74902  8.42968984E-06  1.53698608E-07
  8111.65137  8.33777176E-06  1.50455307E-07
  8155.79199  8.24685685E-06  1.47280289E-07
  8200.17383  8.15692147E-06  1.44171452E-07
  8244.79688  8.0679556E-06  1.41126833E-07
  8289.66211  7.97996199E-06  1.38146873E-07
  8334.77246  7.89293608E-06  1.352293E-07
  8380.12793  7.8068706E-06  1.32373117E-07
  8425.72949  7.72174371E-06  1.29577614E-07
  8471.58008  7.63755452E-06  1.26839495E-07
  8517.67969  7.55429301E-06  1.24158419E-07
  8564.03027  7.47193917E-06  1.21533901E-07
  8610.63379  7.39048073E-06  1.18964891E-07
  8657.49121  7.30990951E-06  1.16449868E-07
  8704.60254  7.23021958E-06  1.13988179E-07
  8751.9707  7.15140959E-06  1.1157811E-07
  8799.5957  7.07346544E-06  1.09218533E-07
  8847.48047  6.9963703E-06  1.06909155E-07
  8895.62598  6.92012736E-06  1.04647285E-07
  8944.03223  6.84472207E-06  1.02433084E-07
  8992.70312  6.77013759E-06  1.00265616E-07
  9041.63965  6.69636347E-06  9.81430688E-08
  9090.84082  6.62339608E-06  9.60654347E-08
  9140.31152  6.5512213E-06  9.40316625E-08
  9190.0498  6.47983506E-06  9.20407857E-08
  9240.05957  6.40922553E-06  9.00918522E-08
  9290.3418  6.33938407E-06  8.81844429E-08
  9340.89648  6.27033296E-06  8.63163478E-08
  9391.72754  6.20203718E-06  8.4487688E-08
  9442.83398  6.13448674E-06  8.26980511E-08
  9494.21875  6.06765843E-06  8.09461724E-08
  9545.88379  6.00155545E-06  7.92316257E-08
  9597.83008  5.93617233E-06  7.75533664E-08
  9650.05859  5.87152954E-06  7.59090781E-08
  9702.57129  5.80759297E-06  7.42994501E-08
  9755.37012  5.74435171E-06  7.27240419E-08
  9808.45508  5.68180121E-06  7.11826473E-08
  9861.83105  5.6199292E-06  6.96738738E-08
  9915.49609  5.55873248E-06  6.81973376E-08
  9969.45312  5.49820197E-06  6.6750502E-08
  10023.7031  5.4383313E-06  6.5334504E-08
  10078.25  5.37911228E-06  6.39483488E-08
  10133.0928  5.32056492E-06  6.25910843E-08
  10188.2344  5.26265421E-06  6.12628241E-08
  10243.6748  5.20537378E-06  5.99627015E-08
  10299.418  5.14870408E-06  5.86896576E-08
  10355.4648  5.09265055E-06  5.74436072E-08
  10411.8164  5.03721139E-06  5.62241738E-08
  10468.4746  4.98239751E-06  5.5030231E-08
  10525.4414  4.92817981E-06  5.38617222E-08
  10582.7168  4.87455372E-06  5.2718093E-08
  10640.3057  4.82150926E-06  5.15980467E-08
  10698.207  4.76904279E-06  5.0501999E-08
  10756.4229  4.71714793E-06  4.94291186E-08
  10814.957  4.6658156E-06  4.83786913E-08
  10873.8076  4.61504442E-06  4.73507882E-08
  10932.9805  4.56482667E-06  4.63445637E-08
  10992.4746  4.51516507E-06  4.53594744E-08
  11052.292  4.46604372E-06  4.43953354E-08
  11112.4355  4.41746033E-06  4.34516707E-08
  11172.9062  4.36941218E-06  4.25276703E-08
  11233.7051  4.3218879E-06  4.16234904E-08
  11294.8359  4.27487976E-06  4.07383247E-08
  11356.2998  4.22838184E-06  3.98716828E-08
  11418.0977  4.18239097E-06  3.90236465E-08
  11480.2314  4.13690395E-06  3.81935514E-08
  11542.7041  4.09191807E-06  3.73811204E-08
  11605.5156  4.04742195E-06  3.65860018E-08
  11668.6689  4.00340969E-06  3.58076555E-08
  11732.166  3.95987581E-06  3.50457547E-08
  11796.0088  3.91681533E-06  3.43000899E-08
  11860.2002  3.87422733E-06  3.357016E-08
  11924.7402  3.83210727E-06  3.28554961E-08
  11989.6309  3.79044582E-06  3.21562013E-08
  12054.874  3.74924321E-06  3.1471707E-08
  12120.4736  3.70849125E-06  3.08017469E-08
  12186.4297  3.66818313E-06  3.01461967E-08
  12252.7451  3.62831292E-06  2.95042817E-08
  12319.4209  3.5888761E-06  2.88759345E-08
  12386.459  3.54986832E-06  2.82609935E-08
  12453.8633  3.51128347E-06  2.76591781E-08
  12521.6328  3.47311925E-06  2.70701541E-08
  12589.7725  3.43536863E-06  2.64937476E-08
  12658.2822  3.39803478E-06  2.59294701E-08
  12727.1641  3.36110975E-06  2.53770907E-08
  12796.4219  3.32458558E-06  2.48366074E-08
  12866.0566  3.28846386E-06  2.43075302E-08
  12936.0693  3.252738E-06  2.37897826E-08
  13006.4639  3.21739958E-06  2.32830981E-08
  13077.2422  3.18244474E-06  2.27869261E-08
  13148.4043  3.14787053E-06  2.23013252E-08
  13219.9531  3.11367194E-06  2.18261249E-08
  13291.8926  3.07985056E-06  2.13610072E-08
  13364.2236  3.04639821E-06  2.09057998E-08
  13436.9482  3.0133092E-06  2.04604138E-08
  13510.0684  2.98057967E-06  2.00242667E-08
  13583.5859  2.94820575E-06  1.95974419E-08
  13657.5029  2.91618403E-06  1.91798311E-08
  13731.8242  2.88451542E-06  1.87709936E-08
  13806.5479  2.85319265E-06  1.83709687E-08
  13881.6797  2.82220913E-06  1.7979513E-08
  13957.2188  2.79156279E-06  1.75962072E-08
  14033.1709  2.76124865E-06  1.72210886E-08
  14109.5352  2.73126398E-06  1.68540506E-08
  14186.3145  2.70160535E-06  1.6494754E-08
  14263.5127  2.67226778E-06  1.61431561E-08
  14341.1299  2.6432499E-06  1.57991611E-08
  14419.1699  2.61455989E-06  1.54622413E-08
  14497.6357  2.58618138E-06  1.5132585E-08
  14576.5273  2.55811074E-06  1.4810059E-08
  14655.8486  2.53033841E-06  1.44943426E-08
  14735.6016  2.50286735E-06  1.41854617E-08
  14815.7881  2.47569551E-06  1.38831915E-08
  14896.4111  2.44882449E-06  1.35871963E-08
  14977.4736  2.42224451E-06  1.32975648E-08
  15058.9766  2.3959542E-06  1.30140165E-08
  15140.9229  2.3699547E-06  1.27363844E-08
  15223.3154  2.34423715E-06  1.24647217E-08
  15306.1562  2.31879881E-06  1.21989094E-08
  15389.4482  2.29363627E-06  1.19386341E-08
  15473.1924  2.26874704E-06  1.16840075E-08
  15557.3936  2.24412861E-06  1.14348104E-08
  15642.0518  2.21978257E-06  1.1190842E-08
  15727.1719  2.19570006E-06  1.09521672E-08
  15812.7539  2.17187767E-06  1.07185896E-08
  15898.8027  2.14830948E-06  1.04899645E-08
  15985.3193  2.12499708E-06  1.02662643E-08
  16072.3057  2.10194116E-06  1.00473718E-08
  16159.7676  2.0791424E-06  9.83308457E-09
  16247.7031  2.05659148E-06  9.62345315E-09
  16336.1191  2.03428476E-06  9.41826794E-09
  16425.0156  2.01221997E-06  9.21740018E-09
  16514.3965  1.99039414E-06  9.02089603E-09
  16604.2617  1.96880615E-06  8.82857343E-09
  16694.6191  1.94745121E-06  8.64033911E-09
  16785.4648  1.92632865E-06  8.4561691E-09
  16876.8066  1.90543687E-06  8.27591062E-09
  16968.6445  1.88477497E-06  8.09948109E-09
  17060.9844  1.86433635E-06  7.92685739E-09
  17153.8242  1.84411977E-06  7.75792586E-09
  17247.1719  1.82412214E-06  7.59256569E-09
  17341.0234  1.80434211E-06  7.4308133E-09
  17435.3887  1.78477592E-06  7.27249416E-09
  17530.2676  1.76542187E-06  7.1175621E-09
  17625.6621  1.74627792E-06  6.96600644E-09
  17721.5762  1.72734394E-06  6.81762691E-09
  17818.0117  1.70861722E-06  6.67240529E-09
  17914.9727  1.69009354E-06  6.5303265E-09
  18012.4609  1.67177052E-06  6.3912684E-09
  18110.4785  1.65364656E-06  6.25520569E-09
  18209.0293  1.63571906E-06  6.12208817E-09
  18308.1191  1.61798812E-06  5.9917884E-09
  18407.7461  1.60045113E-06  5.86426641E-09
  18507.916  1.58310422E-06  5.73953152E-09
  18608.6309  1.56594524E-06  5.61740388E-09
  18709.8926  1.54897248E-06  5.49790835E-09
  18811.707  1.53218332E-06  5.38100098E-09
  18914.0742  1.51557651E-06  5.26656319E-09
  19017.  1.49914933E-06  5.15460075E-09
  19120.4844  1.48290042E-06  5.04506836E-09
  19224.5332  1.46683044E-06  4.93783725E-09
  19329.1465  1.45093554E-06  4.83291052E-09
  19434.3301  1.43521299E-06  4.73028106E-09
  19540.0859  1.41966063E-06  4.62980054E-09
  19646.418  1.40427676E-06  4.53149651E-09
  19753.3281  1.38905966E-06  4.43534676E-09
  19860.8184  1.37400775E-06  4.34083836E-09
  19968.8965  1.35911853E-06  4.24834257E-09
  20077.5605  1.34439108E-06  4.15778612E-09
  20186.8164  1.32982598E-06  4.0694923E-09
  20296.6699  1.31541879E-06  3.9831467E-09
  20407.1152  1.30116825E-06  3.89868759E-09
  20518.166  1.28707165E-06  3.81604126E-09
  20629.8203  1.27312785E-06  3.73518994E-09
  20742.0801  1.25933548E-06  3.65611164E-09
  20854.9531  1.24569203E-06  3.57873109E-09
  20968.4414  1.2321965E-06  3.50303941E-09
  21082.5449  1.21884739E-06  3.4290053E-09
  21197.2695  1.20564596E-06  3.35655392E-09
  21312.6191  1.19258743E-06  3.28569039E-09
