%Au Density=19.32
% Energy(eV), Delta, Beta
  2000.  0.000510325306  0.000105904146
  2010.8833  0.000502321229  0.000104072824
  2021.82605  0.000494430307  0.000102273145
  2032.82837  0.000486356672  0.000100427918
  2043.89026  0.00047827058  9.85826409E-05
  2055.01245  0.000470302359  9.67712695E-05
  2066.19531  0.0004619713  9.49499881E-05
  2077.43896  0.000453596498  9.31479372E-05
  2088.74365  0.000445348647  9.13800905E-05
  2100.11011  0.000436499628  8.96119745E-05
  2111.53809  0.000427587074  8.78687424E-05
  2123.02881  0.0004188155  8.61593289E-05
  2134.58154  0.000409011758  8.44978131E-05
  2146.19727  0.000399122917  8.28713746E-05
  2157.87622  0.000389399822  8.12762228E-05
  2169.6189  0.000377580844  7.96482054E-05
  2181.42529  0.000365630025  7.80432674E-05
  2193.2959  0.000353893294  7.64706929E-05
  2205.2312  0.00033383054  8.05624513E-05
  2217.23145  0.000313328666  8.54801183E-05
  2229.29688  0.000293232064  9.06974237E-05
  2241.42822  0.000288546376  0.000109168366
  2253.62549  0.00028463878  0.000132196874
  2265.88892  0.000280781998  0.000160083116
  2278.21924  0.000278193358  0.000161407166
  2290.61646  0.000275630999  0.000162666081
  2303.08154  0.000273234531  0.000164452606
  2315.61426  0.000274172286  0.000178999369
  2328.21509  0.000275058032  0.000194832901
  2340.88452  0.000276578736  0.000210694328
  2353.6228  0.000285376795  0.00021238919
  2366.43066  0.000293952617  0.000214097643
  2379.30811  0.000301933876  0.000215428008
  2392.25562  0.000307160197  0.000214091051
  2405.27344  0.000312238553  0.000212762388
  2418.3623  0.000316584425  0.000211183899
  2431.52246  0.000317998609  0.000208385914
  2444.75391  0.000319345447  0.000205625023
  2458.05762  0.000320451247  0.000202966796
  2471.43359  0.000320865249  0.00020058146
  2484.88232  0.000321232597  0.000198224123
  2498.40454  0.000321454019  0.000195805711
  2512.  0.000321348198  0.000193165819
  2525.66968  0.000321207161  0.000190561506
  2539.41357  0.000320808758  0.000187841375
  2553.23242  0.000319871062  0.000184815814
  2567.12622  0.00031891602  0.000181839117
  2581.0957  0.000317530823  0.000178959497
  2595.14136  0.000315363606  0.000176217189
  2609.26343  0.000313206227  0.000173516892
  2623.46216  0.000311179378  0.000171246531
  2637.73828  0.000309347175  0.000169609993
  2652.09229  0.000307518349  0.000167989099
  2666.52393  0.00030474551  0.000165944643
  2681.03467  0.00030076789  0.000163358185
  2695.62378  0.000296840823  0.000160812124
  2710.29248  0.000293345074  0.000160646567
  2725.0415  0.000290305703  0.000163094694
  2739.87012  0.00028729788  0.000165580263
  2754.77979  0.000286438473  0.000166747559
  2769.77026  0.000287504459  0.000166667101
  2784.84277  0.000288513984  0.000166586615
  2799.99707  0.00028922857  0.00016508004
  2815.23364  0.000289709889  0.000162497119
  2830.55347  0.000290147058  0.00015995455
  2845.95654  0.000289742864  0.00015757716
  2861.44336  0.000288800715  0.000155315458
  2877.0144  0.000287844945  0.000153086206
  2892.67041  0.000286838389  0.000150789623
  2908.41162  0.000285799877  0.00014847469
  2924.23828  0.000284750422  0.000146195365
  2940.15088  0.000283392845  0.000143737328
  2956.15063  0.000281901244  0.000141227632
  2972.23682  0.000280408771  0.000138761854
  2988.41089  0.00027867686  0.000136397124
  3004.6731  0.0002768657  0.000134092814
  3021.02344  0.000275061058  0.000131827604
  3037.46313  0.000273150712  0.000129640932
  3053.99194  0.000271218218  0.000127501786
  3070.61108  0.000269295415  0.00012539803
  3087.32031  0.000266955642  0.000123252234
  3104.12085  0.000264544447  0.000121127145
  3121.01245  0.000262154354  0.000119038596
  3137.99585  0.000259917404  0.000117983058
  3155.07227  0.00025771829  0.000117088821
  3172.24121  0.000255536375  0.000116201394
  3189.50342  0.000254140032  0.000115195144
  3206.85986  0.000252818776  0.000114185445
  3224.31055  0.000251496211  0.000113184586
  3241.85645  0.000250146171  0.00011125474
  3259.49756  0.000248794735  0.000109313871
  3277.23486  0.000247443066  0.000107406995
  3295.0686  0.00024573502  0.00010557902
  3312.99951  0.00024403409  0.000103782368
  3331.02783  0.000242327587  0.000102015263
  3349.1543  0.000240312118  0.000100257348
  3367.37939  0.000238312015  9.85295774E-05
  3385.70361  0.000236321197  9.68683016E-05
  3404.12769  0.000234282459  9.56258737E-05
  3422.6521  0.000232260281  9.43993437E-05
  3441.2771  0.00023033809  9.31920658E-05
  3478.83179  0.000227649958  9.0869733E-05
  3497.76245  0.000226294695  8.96128622E-05
  3516.79639  0.000224871983  8.78172214E-05
  3535.93384  0.000223453448  8.60576911E-05
  3555.17529  0.000221941867  8.43610032E-05
  3574.52148  0.000220085305  8.27968252E-05
  3593.9729  0.000218243062  8.12615399E-05
  3613.53052  0.000216411645  7.97636894E-05
  3633.19385  0.000214585118  7.83188589E-05
  3652.96484  0.000212772822  7.69000908E-05
  3672.84326  0.000210965576  7.55105284E-05
  3692.82983  0.000209152073  7.41537297E-05
  3712.92505  0.000207353107  7.28214291E-05
  3733.12964  0.000205564269  7.15180358E-05
  3753.44409  0.000203781543  7.0247479E-05
  3773.86963  0.000202013383  6.89993831E-05
  3794.40576  0.000200251539  6.77557764E-05
  3815.05371  0.000198491383  6.6507404E-05
  3835.81421  0.000196745968  6.52819435E-05
  3856.6875  0.000194995475  6.40779981E-05
  3877.67456  0.000193234489  6.28946582E-05
  3898.77588  0.000191488798  6.17331825E-05
  3919.9917  0.00018974494  6.05957321E-05
  3941.323  0.000188001984  5.94818302E-05
  3962.77075  0.000186274483  5.8388483E-05
  3984.33496  0.000184557794  5.73157049E-05
  4006.01636  0.000182852193  5.6263234E-05
  4027.81641  0.000181161857  5.52299825E-05
  4049.73413  0.000179470735  5.41999325E-05
  4071.77173  0.000177782524  5.31771511E-05
  4093.9292  0.000176109883  5.21735783E-05
  4116.20703  0.00017446604  5.12040824E-05
  4138.60596  0.000172845859  5.02621406E-05
  4161.12744  0.000171240201  4.93375628E-05
  4183.771  0.000169549137  4.83332551E-05
  4206.5376  0.000167821461  4.72985412E-05
  4229.42871  0.000166111233  4.62860662E-05
  4252.44385  0.000164408819  4.54814544E-05
  4275.58398  0.000162719632  4.47718448E-05
  4298.85107  0.000161047676  4.4073251E-05
  4322.24414  0.00015947815  4.32824854E-05
  4345.76465  0.000157953808  4.24698483E-05
  4369.41309  0.000156443799  4.16724688E-05
  4393.18994  0.000154908179  4.09132263E-05
  4417.09619  0.000153376459  4.01741454E-05
  4441.13281  0.000151859698  3.94484523E-05
  4465.30029  0.000150356282  3.87159052E-05
  4489.59912  0.000148867301  3.7992846E-05
  4514.02979  0.000147392973  3.72832437E-05
  4538.59424  0.00014591642  3.65920532E-05
  4563.29199  0.000144452075  3.5914516E-05
  4588.12402  0.000143002369  3.52494681E-05
  4613.09082  0.00014155879  3.45914377E-05
  4638.19385  0.000140128934  3.39451144E-05
  4663.43408  0.000138713411  3.33108692E-05
  4688.81104  0.000137300041  3.26897534E-05
  4714.32568  0.000135900511  3.20802428E-05
  4739.97998  0.000134515125  3.148213E-05
  4765.77393  0.000133131602  3.08963536E-05
  4791.70752  0.000131762295  3.03215402E-05
  4817.78271  0.000130406814  2.97577808E-05
  4844.  0.000129060674  2.92135301E-05
  4870.35938  0.000127728403  2.86792783E-05
  4896.8623  0.000126409039  2.81544435E-05
  4923.50977  0.000125094462  2.76358733E-05
  4950.30225  0.000123793565  2.71268236E-05
  4977.24023  0.000122505939  2.66298266E-05
  5004.32471  0.000121230121  2.6159476E-05
  5031.55664  0.000119967553  2.56974672E-05
  5058.93701  0.000118721175  2.52419668E-05
  5086.46631  0.000117502277  2.47868975E-05
  5114.14551  0.000116295836  2.43400627E-05
  5141.9751  0.000115095056  2.38961329E-05
  5169.95605  0.000113882474  2.34420713E-05
  5198.08984  0.000112682639  2.2996599E-05
  5226.37598  0.000111504087  2.25812455E-05
  5254.81641  0.000110362183  2.22342896E-05
  5283.41162  0.000109231929  2.18926434E-05
  5312.1626  0.000108120585  2.1523445E-05
  5341.06982  0.00010703726  2.10863473E-05
  5370.13428  0.00010596474  2.06581662E-05
  5399.35693  0.000104881998  2.02484734E-05
  5428.73877  0.000103771214  1.98651142E-05
  5458.28027  0.000102672209  1.94890417E-05
  5487.98291  0.00010158708  1.91202198E-05
  5517.84668  0.000100516889  1.87586447E-05
  5547.87305  9.9457975E-05  1.84038854E-05
  5578.06299  9.84081125E-05  1.80570278E-05
  5608.41699  9.73666174E-05  1.77181882E-05
  5638.93652  9.63361454E-05  1.73857079E-05
  5669.62207  9.53140552E-05  1.70605363E-05
  5700.47412  9.43000996E-05  1.67425569E-05
  5731.49512  9.32968906E-05  1.64305202E-05
  5762.68408  9.23115149E-05  1.61301996E-05
  5794.04248  9.13430631E-05  1.58407493E-05
  5825.57178  9.03847613E-05  1.55564794E-05
  5857.27295  8.94348996E-05  1.52556449E-05
  5889.14697  8.84937544E-05  1.49442249E-05
  5921.19336  8.75625628E-05  1.46391421E-05
  5953.41553  8.66326955E-05  1.43649104E-05
  5985.81152  8.57073755E-05  1.41114515E-05
  6018.38477  8.47919073E-05  1.38624755E-05
  6051.13525  8.38913184E-05  1.3601647E-05
  6084.06348  8.3003004E-05  1.33371814E-05
  6117.17139  8.21240828E-05  1.30778772E-05
  6150.45947  8.12467042E-05  1.28240199E-05
  6183.92871  8.03753137E-05  1.25752949E-05
  6217.57959  7.95132801E-05  1.23313766E-05
  6251.41406  7.86588425E-05  1.2093069E-05
  6285.43164  7.78130343E-05  1.18596936E-05
  6319.63525  7.69762992E-05  1.1630802E-05
  6354.0249  7.61472838E-05  1.14061913E-05
  6388.60156  7.53268396E-05  1.11858653E-05
  6423.3667  7.45152283E-05  1.09698085E-05
  6458.3208  7.37105875E-05  1.07576807E-05
  6493.46484  7.29142412E-05  1.05496247E-05
  6528.80029  7.21265023E-05  1.0345575E-05
  6564.32861  7.13455447E-05  1.01453188E-05
  6600.04932  7.05728089E-05  9.94893617E-06
  6635.96533  6.98084186E-05  9.75633793E-06
  6672.07617  6.90507077E-05  9.56729582E-06
  6708.38379  6.83010658E-05  9.38188532E-06
  6744.88867  6.75595657E-05  9.20007005E-06
  6781.59229  6.6824512E-05  9.02168722E-06
  6818.49561  6.60973747E-05  8.84674682E-06
  6855.6001  6.53781535E-05  8.67520885E-06
  6892.90625  6.46652552E-05  8.50682682E-06
  6930.41553  6.39601203E-05  8.34172351E-06
  6968.12891  6.32626179E-05  8.17980708E-06
  7006.04736  6.25713146E-05  8.02091381E-06
  7044.17236  6.18875783E-05  7.8651201E-06
  7082.50439  6.12111908E-05  7.71232681E-06
  7121.04492  6.0540955E-05  7.56235022E-06
  7159.7959  5.98780462E-05  7.41528038E-06
  7198.75781  5.92222095E-05  7.27107636E-06
  7237.93066  5.85723901E-05  7.12963765E-06
  7277.31738  5.7929683E-05  6.99095108E-06
  7316.91895  5.72938152E-05  6.85496661E-06
  7356.73535  5.66639428E-05  6.72160013E-06
  7396.76855  5.60409899E-05  6.59083753E-06
  7437.01953  5.54246435E-05  6.46259014E-06
  7477.48926  5.48142307E-05  6.33677655E-06
  7518.17969  5.42105336E-05  6.21340223E-06
  7559.0918  5.36131702E-05  6.09239942E-06
  7600.22607  5.30215584E-05  5.9736717E-06
  7641.58447  5.24364586E-05  5.85724729E-06
  7683.16748  5.18574707E-05  5.74310116E-06
  7724.97705  5.12840597E-05  5.6311651E-06
  7767.01416  5.07169934E-05  5.52141864E-06
  7809.27979  5.01558243E-05  5.41380132E-06
  7851.77588  4.96001921E-05  5.30827538E-06
  7894.50244  4.90507191E-05  5.2048149E-06
  7937.4624  4.85069286E-05  5.10335576E-06
  7980.65576  4.79685586E-05  5.0038725E-06
  8024.08398  4.74361586E-05  4.90632192E-06
  8067.74902  4.69092156E-05  4.81066309E-06
  8111.65137  4.63875658E-05  4.7168669E-06
  8155.79199  4.5871715E-05  4.62489379E-06
  8200.17383  4.53611028E-05  4.53470466E-06
  8244.79688  4.4855653E-05  4.44625039E-06
  8289.66211  4.43558347E-05  4.35953098E-06
  8334.77246  4.38610368E-05  4.2744764E-06
  8380.12793  4.33712667E-05  4.19106664E-06
  8425.72949  4.2886968E-05  4.10929169E-06
  8471.58008  4.24074678E-05  4.02910746E-06
  8517.67969  4.19328717E-05  3.9504971E-06
  8564.03027  4.14635761E-05  3.87341379E-06
  8610.63379  4.09988788E-05  3.79784933E-06
  8657.49121  4.05389619E-05  3.72375848E-06
  8704.60254  4.00842109E-05  3.65111441E-06
  8751.9707  3.96338437E-05  3.57991075E-06
  8799.5957  3.9188144E-05  3.51009999E-06
  8847.48047  3.87474538E-05  3.44165551E-06
  8895.62598  3.83109436E-05  3.37456277E-06
  8944.03223  3.78790246E-05  3.30879379E-06
  8992.70312  3.74519514E-05  3.24430175E-06
  9041.63965  3.70288108E-05  3.1810705E-06
  9090.84082  3.66101522E-05  3.11907957E-06
  9140.31152  3.61962011E-05  3.05829167E-06
  9190.0498  3.57859753E-05  2.99870317E-06
  9240.05957  3.53801152E-05  2.94027336E-06
  9290.3418  3.49788497E-05  2.88298679E-06
  9340.89648  3.45810113E-05  2.82681913E-06
  9391.72754  3.41874438E-05  2.77174604E-06
  9442.83398  3.37983547E-05  2.71775161E-06
  9494.21875  3.3412387E-05  2.66481311E-06
  9545.88379  3.30306248E-05  2.61291143E-06
  9597.83008  3.26532027E-05  2.56201679E-06
  9650.05859  3.22786182E-05  2.51214055E-06
  9702.57129  3.19081701E-05  2.46323361E-06
  9755.37012  3.15419529E-05  2.41527914E-06
  9808.45508  3.11782169E-05  2.3682851E-06
  9861.83105  3.0818559E-05  2.32220214E-06
  9915.49609  3.04630485E-05  2.27702026E-06
  9969.45312  3.01095624E-05  2.23275538E-06
  10023.7031  2.97601673E-05  2.18935497E-06
  10078.25  2.94146921E-05  2.14679608E-06
  10133.0928  2.90709686E-05  2.10509893E-06
  10188.2344  2.87312432E-05  2.06421419E-06
  10243.6748  2.83952286E-05  2.02412389E-06
  10299.418  2.80605946E-05  1.98483758E-06
  10355.4648  2.77298714E-05  1.94631025E-06
  10411.8164  2.74025861E-05  1.90853871E-06
  10468.4746  2.70762139E-05  1.87152727E-06
  10525.4414  2.67536961E-05  1.835234E-06
  10582.7168  2.64342725E-05  1.79965264E-06
  10640.3057  2.6115189E-05  1.76478193E-06
  10698.207  2.57999218E-05  1.73058993E-06
  10756.4229  2.54872466E-05  1.69706539E-06
  10814.957  2.51741112E-05  1.66421592E-06
  10873.8076  2.48647848E-05  1.63200582E-06
  10932.9805  2.45572774E-05  1.60042475E-06
  10992.4746  2.42481383E-05  1.56948113E-06
  11052.292  2.39428064E-05  1.5391339E-06
  11112.4355  2.3637991E-05  1.50938445E-06
  11172.9062  2.33295359E-05  1.48022696E-06
  11233.7051  2.30250007E-05  1.4516354E-06
  11294.8359  2.27182118E-05  1.42360466E-06
  11356.2998  2.24039923E-05  1.39613553E-06
  11418.0977  2.20939255E-05  1.36919903E-06
  11480.2314  2.1774149E-05  1.34279401E-06
  11542.7041  2.14374795E-05  1.31692173E-06
  11605.5156  2.11055249E-05  1.29154625E-06
  11668.6689  2.07261292E-05  1.2666743E-06
  11732.166  2.02853735E-05  1.24230201E-06
  11796.0088  1.98516827E-05  1.21839707E-06
  11860.2002  1.82094554E-05  1.19495439E-06
  11924.7402  1.57703107E-05  2.92161553E-06
  11989.6309  1.80441421E-05  2.86321097E-06
  12054.874  1.91086492E-05  2.80598442E-06
  12120.4736  1.90963729E-05  2.74991362E-06
  12186.4297  1.90821047E-05  2.69496832E-06
  12252.7451  1.9006693E-05  2.64110599E-06
  12319.4209  1.88853701E-05  2.58831642E-06
  12386.459  1.87644655E-05  2.5365789E-06
  12453.8633  1.86231755E-05  2.48588663E-06
  12521.6328  1.84695455E-05  2.43620866E-06
  12589.7725  1.83170578E-05  2.38752295E-06
  12658.2822  1.81533378E-05  2.33981291E-06
  12727.1641  1.79844847E-05  2.29305147E-06
  12796.4219  1.7817154E-05  2.24722794E-06
  12866.0566  1.76413832E-05  2.202323E-06
  12936.0693  1.74630095E-05  2.15832142E-06
  13006.4639  1.72864329E-05  2.11519568E-06
  13077.2422  1.71009688E-05  2.0729226E-06
  13148.4043  1.69137475E-05  2.03149557E-06
  13219.9531  1.67285762E-05  1.99089368E-06
  13291.8926  1.65286528E-05  1.95111193E-06
  13364.2236  1.63264685E-05  1.91212416E-06
  13436.9482  1.61267271E-05  1.87391879E-06
  13510.0684  1.58702751E-05  1.83646898E-06
  13583.5859  1.56050883E-05  1.79976723E-06
  13657.5029  1.53437977E-05  1.76380217E-06
  13731.8242  1.3802739E-05  1.72856483E-06
  13806.5479  1.43733896E-05  2.36328901E-06
  13881.6797  1.4983937E-05  2.31674062E-06
  13957.2188  1.494553E-05  2.27110604E-06
  14033.1709  1.48457939E-05  2.22636527E-06
  14109.5352  1.47464725E-05  2.18250671E-06
  14186.3145  1.4537698E-05  2.13951898E-06
  14263.5127  1.43267043E-05  2.09737391E-06
  14341.1299  1.41185865E-05  2.05606284E-06
  14419.1699  1.38116502E-05  2.31875651E-06
  14497.6357  1.3932904E-05  2.27551686E-06
  14576.5273  1.40404709E-05  2.23308757E-06
  14655.8486  1.39388449E-05  2.19145181E-06
  14735.6016  1.383777E-05  2.1505964E-06
  14815.7881  1.37361103E-05  2.1104895E-06
  14896.4111  1.36228728E-05  2.07102767E-06
  14977.4736  1.35104819E-05  2.03230002E-06
  15058.9766  1.33980766E-05  1.99428291E-06
  15140.9229  1.32808264E-05  1.9568879E-06
  15223.3154  1.31645502E-05  1.92019093E-06
  15306.1562  1.30485141E-05  1.884168E-06
  15389.4482  1.2930047E-05  1.8487392E-06
  15473.1924  1.28126158E-05  1.81397991E-06
  15557.3936  1.26955802E-05  1.77985066E-06
  15642.0518  1.25773076E-05  1.74629122E-06
  15727.1719  1.24601056E-05  1.71336751E-06
  15812.7539  1.23433929E-05  1.6810427E-06
  15898.8027  1.22261172E-05  1.64927656E-06
  15985.3193  1.21099392E-05  1.61810897E-06
  16072.3057  1.19943161E-05  1.58751004E-06
  16159.7676  1.1878582E-05  1.55743624E-06
  16247.7031  1.17639502E-05  1.52793496E-06
  16336.1191  1.16499223E-05  1.49896562E-06
  16425.0156  1.15360826E-05  1.47050025E-06
  16514.3965  1.14233399E-05  1.44257797E-06
  16604.2617  1.13112392E-05  1.41516034E-06
  16694.6191  1.11995214E-05  1.38822918E-06
  16785.4648  1.10889032E-05  1.36180927E-06
  16876.8066  1.09789444E-05  1.3358665E-06
  16968.6445  1.08695249E-05  1.31038769E-06
  17060.9844  1.07611868E-05  1.28539307E-06
  17153.8242  1.06535235E-05  1.26085263E-06
  17247.1719  1.05465006E-05  1.23675272E-06
  17341.0234  1.0440549E-05  1.21311575E-06
  17435.3887  1.03352832E-05  1.18990613E-06
  17530.2676  1.02307367E-05  1.16712056E-06
  17625.6621  1.01272426E-05  1.14477302E-06
  17721.5762  1.00244442E-05  1.1228251E-06
  17818.0117  9.92242076E-06  1.10127962E-06
  17914.9727  9.82143138E-06  1.08014581E-06
  18012.4609  9.72114049E-06  1.05939557E-06
  18110.4785  9.62166177E-06  1.03903176E-06
  18209.0293  9.52319988E-06  1.019058E-06
  18308.1191  9.42543102E-06  9.99446115E-07
  18407.7461  9.32850344E-06  9.80197797E-07
  18507.916  9.23256812E-06  9.61321916E-07
  18608.6309  9.13732765E-06  9.42784311E-07
  18709.8926  9.04294393E-06  9.24595724E-07
  18811.707  8.94953155E-06  9.06756725E-07
  18914.0742  8.8568122E-06  8.89241051E-07
  19017.  8.76495506E-06  8.72057569E-07
  19120.4844  8.67405015E-06  8.55205258E-07
  19224.5332  8.58383009E-06  8.38658309E-07
  19329.1465  8.4944777E-06  8.2242434E-07
  19434.3301  8.40605389E-06  8.06506137E-07
  19540.0859  8.31830585E-06  7.90876129E-07
  19646.418  8.23142273E-06  7.75544891E-07
  19753.3281  8.14544546E-06  7.60512307E-07
  19860.8184  8.06014395E-06  7.45749162E-07
  19968.8965  7.97569828E-06  7.31270461E-07
  20077.5605  7.89213937E-06  7.17071998E-07
  20186.8164  7.80923983E-06  7.03131946E-07
  20296.6699  7.72718886E-06  6.89460251E-07
  20407.1152  7.64600372E-06  6.7605481E-07
  20518.166  7.56546797E-06  6.62891523E-07
  20629.8203  7.48577213E-06  6.49982837E-07
  20742.0801  7.40691667E-06  6.37326934E-07
  20854.9531  7.32870103E-06  6.24900338E-07
  20968.4414  7.25131122E-06  6.12716065E-07
  21082.5449  7.17473176E-06  6.00770022E-07
  21197.2695  7.09880032E-06  5.89041235E-07
  21312.6191  7.02367106E-06  5.77542437E-07
  21428.5957  6.94932396E-06  5.66266237E-07
