%Be Density=1.848
% Energy(eV), Delta, Beta
  2000.  8.62057786E-05  6.80262644E-07
  2010.8833  8.52663507E-05  6.65497907E-07
  2021.82605  8.43371236E-05  6.51053597E-07
  2032.82837  8.3418141E-05  6.36775553E-07
  2043.89026  8.25092284E-05  6.22746995E-07
  2055.01245  8.16102111E-05  6.09027552E-07
  2066.19531  8.07210672E-05  5.95608299E-07
  2077.43896  7.98416659E-05  5.824852E-07
  2088.74365  7.89718324E-05  5.69651377E-07
  2100.11011  7.81115887E-05  5.57102112E-07
  2111.53809  7.72607455E-05  5.44830016E-07
  2123.02881  7.64191354E-05  5.32827869E-07
  2134.58154  7.55868896E-05  5.21089419E-07
  2146.19727  7.47637314E-05  5.09609663E-07
  2157.87622  7.39495226E-05  4.9838286E-07
  2169.6189  7.31442269E-05  4.87404577E-07
  2181.42529  7.23477278E-05  4.76668532E-07
  2193.2959  7.15598944E-05  4.66169183E-07
  2205.2312  7.07808504E-05  4.55900619E-07
  2217.23145  7.00103119E-05  4.45858035E-07
  2229.29688  6.92481699E-05  4.36037311E-07
  2241.42822  6.84943589E-05  4.26433957E-07
  2253.62549  6.77487697E-05  4.17042457E-07
  2265.88892  6.70113004E-05  4.07858067E-07
  2278.21924  6.62820094E-05  3.98873823E-07
  2290.61646  6.55606709E-05  3.90087706E-07
  2303.08154  6.48471687E-05  3.81494999E-07
  2315.61426  6.41416045E-05  3.73094622E-07
  2328.21509  6.34437092E-05  3.64879497E-07
  2340.88452  6.27534173E-05  3.56845248E-07
  2353.6228  6.2070736E-05  3.48986589E-07
  2366.43066  6.13954689E-05  3.41301245E-07
  2379.30811  6.07275651E-05  3.33785067E-07
  2392.25562  6.00670173E-05  3.26435696E-07
  2405.27344  5.94136618E-05  3.19248414E-07
  2418.3623  5.87674185E-05  3.12219498E-07
  2431.52246  5.81282802E-05  3.05345509E-07
  2444.75391  5.74961159E-05  2.98623092E-07
  2458.05762  5.6870831E-05  2.92048782E-07
  2471.43359  5.62524692E-05  2.85618938E-07
  2484.88232  5.5640834E-05  2.7933109E-07
  2498.40454  5.503586E-05  2.73181854E-07
  2512.  5.44375398E-05  2.67168247E-07
  2525.66968  5.38457134E-05  2.61287084E-07
  2539.41357  5.32603553E-05  2.55535923E-07
  2553.23242  5.26814219E-05  2.49911693E-07
  2567.12622  5.21087895E-05  2.4441178E-07
  2581.0957  5.15424108E-05  2.39033E-07
  2595.14136  5.09822275E-05  2.33772369E-07
  2609.26343  5.04281379E-05  2.28627712E-07
  2623.46216  4.98801091E-05  2.23596373E-07
  2637.73828  4.9338083E-05  2.18675851E-07
  2652.09229  4.88019396E-05  2.13863387E-07
  2666.52393  4.82716969E-05  2.09157676E-07
  2681.03467  4.77472531E-05  2.04555747E-07
  2695.62378  4.72285355E-05  2.00055439E-07
  2710.29248  4.67154568E-05  1.95654025E-07
  2725.0415  4.62079624E-05  1.91349329E-07
  2739.87012  4.57059978E-05  1.87139619E-07
  2754.77979  4.52095192E-05  1.83022692E-07
  2769.77026  4.47184721E-05  1.78996885E-07
  2784.84277  4.42327546E-05  1.75059711E-07
  2799.99707  4.37523777E-05  1.7120945E-07
  2815.23364  4.32772649E-05  1.67444099E-07
  2830.55347  4.28073072E-05  1.63761712E-07
  2845.95654  4.23424717E-05  1.60160511E-07
  2861.44336  4.18827076E-05  1.56638521E-07
  2877.0144  4.14279311E-05  1.5319435E-07
  2892.67041  4.09781569E-05  1.49826192E-07
  2908.41162  4.05333012E-05  1.46532358E-07
  2924.23828  4.00932768E-05  1.4331107E-07
  2940.15088  3.96580581E-05  1.40160878E-07
  2956.15063  3.92275615E-05  1.37079965E-07
  2972.23682  3.88017543E-05  1.3406715E-07
  2988.41089  3.83806291E-05  1.311207E-07
  3004.6731  3.79640951E-05  1.28238725E-07
  3021.02344  3.75520976E-05  1.25420129E-07
  3037.46313  3.71445785E-05  1.22633111E-07
  3053.99194  3.67414941E-05  1.19899866E-07
  3070.61108  3.63427862E-05  1.17227934E-07
  3087.32031  3.59484293E-05  1.14615837E-07
  3104.12085  3.55583506E-05  1.12062338E-07
  3121.01245  3.51725103E-05  1.0956574E-07
  3137.99585  3.47909117E-05  1.07124791E-07
  3155.07227  3.44134496E-05  1.04738106E-07
  3172.24121  3.40400911E-05  1.02404798E-07
  3189.50342  3.36708144E-05  1.00124083E-07
  3206.85986  3.33055359E-05  9.78941799E-08
  3224.31055  3.29442228E-05  9.57143413E-08
  3241.85645  3.25868787E-05  9.35830684E-08
  3259.49756  3.22334163E-05  9.14994374E-08
  3277.23486  3.18837847E-05  8.94625813E-08
  3295.0686  3.15379766E-05  8.7470994E-08
  3312.99951  3.11959157E-05  8.55240927E-08
  3331.02783  3.08575691E-05  8.36205203E-08
  3349.1543  3.05229405E-05  8.17594454E-08
  3367.37939  3.01919408E-05  7.99398379E-08
  3385.70361  2.98645336E-05  7.81608662E-08
  3404.12769  2.9540699E-05  7.64218981E-08
  3422.6521  2.92203695E-05  7.4721612E-08
  3441.2771  2.89035197E-05  7.30594536E-08
  3460.00342  2.85901333E-05  7.14342505E-08
  3478.83179  2.82801411E-05  6.98455267E-08
  3497.76245  2.79735177E-05  6.82921382E-08
  3516.79639  2.76702558E-05  6.67734525E-08
  3535.93384  2.73702808E-05  6.52888659E-08
  3555.17529  2.70735709E-05  6.38373265E-08
  3574.52148  2.67801115E-05  6.24183869E-08
  3593.9729  2.64898354E-05  6.10310025E-08
  3613.53052  2.6202697E-05  5.96746261E-08
  3633.19385  2.59186836E-05  5.83487783E-08
  3652.96484  2.56377407E-05  5.70524001E-08
  3672.84326  2.53598591E-05  5.57850939E-08
  3692.82983  2.50850135E-05  5.45458647E-08
  3712.92505  2.4813151E-05  5.33344569E-08
  3733.12964  2.45442407E-05  5.21500141E-08
  3753.44409  2.42782608E-05  5.09921882E-08
  3773.86963  2.40151585E-05  4.98601196E-08
  3794.40576  2.37549248E-05  4.87533605E-08
  3815.05371  2.34975378E-05  4.76714277E-08
  3835.81421  2.32429338E-05  4.66135788E-08
  3856.6875  2.29911038E-05  4.55794762E-08
  3877.67456  2.2742006E-05  4.45683952E-08
  3898.77588  2.24956111E-05  4.35799095E-08
  3919.9917  2.22518956E-05  4.26135678E-08
  3941.323  2.20108304E-05  4.16686916E-08
  3962.77075  2.17723737E-05  4.07450145E-08
  3984.33496  2.15365108E-05  3.98418969E-08
  4006.01636  2.13032163E-05  3.89589765E-08
  4027.81641  2.10724393E-05  3.80955214E-08
  4049.73413  2.08441797E-05  3.7251386E-08
  4071.77173  2.06183977E-05  3.64261474E-08
  4093.9292  2.03950603E-05  3.56192658E-08
  4116.20703  2.01741641E-05  3.48263143E-08
  4138.60596  1.99556762E-05  3.40484547E-08
  4161.12744  1.97395475E-05  3.32881882E-08
  4183.771  1.95257762E-05  3.25449889E-08
  4206.5376  1.9314326E-05  3.18185478E-08
  4229.42871  1.91051604E-05  3.11085131E-08
  4252.44385  1.88982631E-05  3.04144052E-08
  4275.58398  1.86936122E-05  2.97360216E-08
  4298.85107  1.8491166E-05  2.90728295E-08
  4322.24414  1.82909425E-05  2.84246475E-08
  4345.76465  1.8092891E-05  2.77910193E-08
  4369.41309  1.78969876E-05  2.71716463E-08
  4393.18994  1.77032034E-05  2.65662621E-08
  4417.09619  1.75115183E-05  2.59744333E-08
  4441.13281  1.73219105E-05  2.53959911E-08
  4465.30029  1.71343763E-05  2.48305234E-08
  4489.59912  1.69488776E-05  2.42778562E-08
  4514.02979  1.67653907E-05  2.37375808E-08
  4538.59424  1.65838828E-05  2.32094592E-08
  4563.29199  1.64043468E-05  2.26932855E-08
  4588.12402  1.62267497E-05  2.218869E-08
  4613.09082  1.60511081E-05  2.16954668E-08
  4638.19385  1.58773637E-05  2.12133031E-08
  4663.43408  1.57054965E-05  2.07419877E-08
  4688.81104  1.55354955E-05  2.02813624E-08
  4714.32568  1.53673373E-05  1.98310683E-08
  4739.97998  1.52009898E-05  1.93909369E-08
  4765.77393  1.50364585E-05  1.89606872E-08
  4791.70752  1.48737136E-05  1.8540149E-08
  4817.78271  1.47127266E-05  1.81290378E-08
  4844.  1.45534932E-05  1.77271495E-08
  4870.35938  1.43959851E-05  1.73343331E-08
  4896.8623  1.42401841E-05  1.69503327E-08
  4923.50977  1.40860766E-05  1.65749974E-08
  4950.30225  1.39336371E-05  1.62080713E-08
  4977.24023  1.3782852E-05  1.58494391E-08
  5004.32471  1.36337076E-05  1.54988378E-08
  5031.55664  1.34861757E-05  1.51561075E-08
  5058.93701  1.33402418E-05  1.48210582E-08
  5086.46631  1.31958977E-05  1.4493537E-08
  5114.14551  1.30531134E-05  1.41734144E-08
  5141.9751  1.29118762E-05  1.38604666E-08
  5169.95605  1.27721669E-05  1.3554601E-08
  5198.08984  1.26339673E-05  1.32555771E-08
  5226.37598  1.24972685E-05  1.2962774E-08
  5254.81641  1.23620548E-05  1.26751649E-08
  5283.41162  1.22283036E-05  1.23940396E-08
  5312.1626  1.2096003E-05  1.21193047E-08
  5341.06982  1.19651413E-05  1.18507648E-08
  5370.13428  1.18356966E-05  1.15883241E-08
  5399.35693  1.17076561E-05  1.13317888E-08
  5428.73877  1.15810035E-05  1.1081041E-08
  5458.28027  1.14557242E-05  1.08359872E-08
  5487.98291  1.13318019E-05  1.05964677E-08
  5517.84668  1.12092275E-05  1.03624043E-08
  5547.87305  1.10879782E-05  1.01336113E-08
  5578.06299  1.09680404E-05  9.91001059E-09
  5608.41699  1.08494005E-05  9.69144409E-09
  5638.93652  1.07320438E-05  9.47782031E-09
  5669.62207  1.06159541E-05  9.26903798E-09
  5700.47412  1.0501125E-05  9.06495767E-09
  5731.49512  1.03875318E-05  8.86550833E-09
  5762.68408  1.0275181E-05  8.67055316E-09
  5794.04248  1.01640535E-05  8.48003356E-09
  5825.57178  1.00541274E-05  8.29379587E-09
  5857.27295  9.94539005E-06  8.11176015E-09
  5889.14697  9.83782502E-06  7.93384558E-09
  5921.19336  9.73142869E-06  7.75994113E-09
  5953.41553  9.62618287E-06  7.58997931E-09
  5985.81152  9.52208393E-06  7.42385087E-09
  6018.38477  9.4191073E-06  7.2614661E-09
  6051.13525  9.3172448E-06  7.10271353E-09
  6084.06348  9.21648552E-06  6.94755009E-09
  6117.17139  9.116814E-06  6.79590428E-09
  6150.45947  9.01822568E-06  6.64766597E-09
  6183.92871  8.92070511E-06  6.50278587E-09
  6217.57959  8.82424047E-06  6.36116804E-09
  6251.41406  8.72882356E-06  6.22273921E-09
  6285.43164  8.63444257E-06  6.08744966E-09
  6319.63525  8.54108202E-06  5.95519767E-09
  6354.0249  8.4487292E-06  5.82541482E-09
  6388.60156  8.3573741E-06  5.69841463E-09
  6423.3667  8.26700671E-06  5.57430413E-09
  6458.3208  8.17762339E-06  5.45299983E-09
  6493.46484  8.08920868E-06  5.33445688E-09
  6528.80029  8.00174894E-06  5.21859089E-09
  6564.32861  7.91523325E-06  5.10534459E-09
  6600.04932  7.82965526E-06  4.99467978E-09
  6635.96533  7.74500222E-06  4.88650898E-09
  6672.07617  7.66126868E-06  4.78080153E-09
  6708.38379  7.57844236E-06  4.67747929E-09
  6744.88867  7.49651099E-06  4.57649696E-09
  6781.59229  7.41546546E-06  4.47780479E-09
  6818.49561  7.3352976E-06  4.38133529E-09
  6855.6001  7.25599421E-06  4.28705693E-09
  6892.90625  7.17755483E-06  4.19490886E-09
  6930.41553  7.09996311E-06  4.10485468E-09
  6968.12891  7.02321086E-06  4.0168282E-09
  7006.04736  6.94728806E-06  3.9307908E-09
  7044.17236  6.87218653E-06  3.84670651E-09
  7082.50439  6.79789764E-06  3.76451581E-09
  7121.04492  6.72441683E-06  3.68418496E-09
  7159.7959  6.65172911E-06  3.60566133E-09
  7198.75781  6.57982628E-06  3.52892049E-09
  7237.93066  6.50870379E-06  3.45391338E-09
  7277.31738  6.43834892E-06  3.38060069E-09
  7316.91895  6.36875302E-06  3.30894911E-09
  7356.73535  6.29991064E-06  3.23890847E-09
  7396.76855  6.23181268E-06  3.1704539E-09
  7437.01953  6.16445095E-06  3.10353876E-09
  7477.48926  6.09782228E-06  3.03814129E-09
  7518.17969  6.03191393E-06  2.97421199E-09
  7559.0918  5.96671771E-06  2.91172308E-09
  7600.22607  5.90223135E-06  2.8506506E-09
  7641.58447  5.83844121E-06  2.79094836E-09
  7683.16748  5.77534138E-06  2.73259371E-09
  7724.97705  5.7129223E-06  2.67554356E-09
  7767.01416  5.65117898E-06  2.61978284E-09
  7809.27979  5.59010186E-06  2.56527555E-09
  7851.77588  5.5296855E-06  2.5119995E-09
  7894.50244  5.46992305E-06  2.45992804E-09
  7937.4624  5.41080681E-06  2.40902343E-09
  7980.65576  5.35233266E-06  2.35926789E-09
  8024.08398  5.29449017E-06  2.31059594E-09
  8067.74902  5.23727249E-06  2.26298824E-09
  8111.65137  5.18067418E-06  2.21645169E-09
  8155.79199  5.12468796E-06  2.17095564E-09
  8200.17383  5.06930746E-06  2.12648787E-09
  8244.79688  5.01452814E-06  2.08301554E-09
  8289.66211  4.9603409E-06  2.04052375E-09
  8334.77246  4.90673847E-06  1.99885308E-09
  8380.12793  4.85371629E-06  1.9580062E-09
  8425.72949  4.80126664E-06  1.91808347E-09
  8471.58008  4.74938361E-06  1.87905669E-09
  8517.67969  4.69806173E-06  1.8409132E-09
  8564.03027  4.64729465E-06  1.80362447E-09
  8610.63379  4.59707735E-06  1.76717718E-09
  8657.49121  4.54740348E-06  1.73154657E-09
  8704.60254  4.49826803E-06  1.69671743E-09
  8751.9707  4.44966281E-06  1.66267333E-09
  8799.5957  4.40158419E-06  1.62939162E-09
  8847.48047  4.35402399E-06  1.59685942E-09
  8895.62598  4.30697764E-06  1.56505287E-09
  8944.03223  4.26044062E-06  1.53396196E-09
  8992.70312  4.21440518E-06  1.50356494E-09
  9041.63965  4.16886905E-06  1.47385171E-09
  9090.84082  4.12382769E-06  1.44480827E-09
  9140.31152  4.07927155E-06  1.4164121E-09
  9190.0498  4.03519789E-06  1.38865286E-09
  9240.05957  3.9915999E-06  1.36151124E-09
  9290.3418  3.94847211E-06  1.33497879E-09
  9340.89648  3.90581181E-06  1.30903755E-09
  9391.72754  3.86361125E-06  1.28367583E-09
  9442.83398  3.82186772E-06  1.25888278E-09
  9494.21875  3.78057507E-06  1.23464039E-09
  9545.88379  3.73972807E-06  1.2109409E-09
  9597.83008  3.69932218E-06  1.18776688E-09
  9650.05859  3.65935603E-06  1.16511145E-09
  9702.57129  3.61982188E-06  1.14295839E-09
  9755.37012  3.58071429E-06  1.12129805E-09
  9808.45508  3.54203075E-06  1.10012077E-09
  9861.83105  3.50376331E-06  1.07941178E-09
  9915.49609  3.46591059E-06  1.05916442E-09
  9969.45312  3.42846897E-06  1.03936393E-09
  10023.7031  3.39143276E-06  1.01995556E-09
  10078.25  3.35479558E-06  1.00091235E-09
  10133.0928  3.31855153E-06  9.82290582E-10
  10188.2344  3.28269903E-06  9.64080926E-10
  10243.6748  3.24723533E-06  9.46270839E-10
  10299.418  3.21215612E-06  9.28852717E-10
  10355.4648  3.17745571E-06  9.11815956E-10
  10411.8164  3.1431307E-06  8.95155394E-10
  10468.4746  3.10917881E-06  8.78859985E-10
  10525.4414  3.07559367E-06  8.62921845E-10
  10582.7168  3.04237142E-06  8.47334369E-10
  10640.3057  3.00950524E-06  8.32085956E-10
  10698.207  2.97699421E-06  8.17172552E-10
  10756.4229  2.94483539E-06  8.02584332E-10
  10814.957  2.9130249E-06  7.88314969E-10
  10873.8076  2.88155934E-06  7.74358522E-10
  10932.9805  2.85043257E-06  7.60703944E-10
  10992.4746  2.8196423E-06  7.47344853E-10
  11052.292  2.78918537E-06  7.34275529E-10
  11112.4355  2.75905677E-06  7.21492532E-10
  11172.9062  2.72925354E-06  7.08988757E-10
  11233.7051  2.69977272E-06  6.96757263E-10
  11294.8359  2.67061E-06  6.84788615E-10
  11356.2998  2.64176174E-06  6.73077094E-10
  11418.0977  2.61322612E-06  6.61619648E-10
  11480.2314  2.58499904E-06  6.50409393E-10
  11542.7041  2.55707801E-06  6.3944261E-10
  11605.5156  2.5294587E-06  6.2871125E-10
  11668.6689  2.50213725E-06  6.18210816E-10
  11732.166  2.47510957E-06  6.07937145E-10
  11796.0088  2.44837383E-06  5.9788291E-10
  11860.2002  2.42192732E-06  5.8804428E-10
  11924.7402  2.39576775E-06  5.78414983E-10
  11989.6309  2.36989126E-06  5.68992298E-10
  12054.874  2.34429535E-06  5.59771562E-10
  12120.4736  2.31897593E-06  5.50748169E-10
  12186.4297  2.29393072E-06  5.41917844E-10
  12252.7451  2.26915427E-06  5.33272482E-10
  12319.4209  2.24464497E-06  5.24810084E-10
  12386.459  2.22040057E-06  5.16526488E-10
  12453.8633  2.19641879E-06  5.08391829E-10
  12521.6328  2.17269712E-06  5.00412267E-10
  12589.7725  2.14923125E-06  4.92602348E-10
  12658.2822  2.12601799E-06  4.84958185E-10
  12727.1641  2.10305507E-06  4.77475171E-10
  12796.4219  2.08033953E-06  4.70150918E-10
  12866.0566  2.05787069E-06  4.62980765E-10
  12936.0693  2.03564537E-06  4.55962407E-10
  13006.4639  2.01365992E-06  4.49091181E-10
  13077.2422  1.99191163E-06  4.42364895E-10
  13148.4043  1.97039867E-06  4.35780662E-10
  13219.9531  1.94911831E-06  4.29333763E-10
  13291.8926  1.92806851E-06  4.23021396E-10
  13364.2236  1.90724654E-06  4.16840201E-10
  13436.9482  1.8866491E-06  4.10788209E-10
  13510.0684  1.86627312E-06  4.04861172E-10
  13583.5859  1.8461169E-06  3.99057065E-10
  13657.5029  1.82617885E-06  3.93373584E-10
  13731.8242  1.80645657E-06  3.8780798E-10
  13806.5479  1.78694825E-06  3.82357646E-10
  13881.6797  1.76765002E-06  3.7701911E-10
  13957.2188  1.74855927E-06  3.71789793E-10
  14033.1709  1.72967407E-06  3.66667197E-10
  14109.5352  1.71099339E-06  3.61649405E-10
  14186.3145  1.69251575E-06  3.56734892E-10
  14263.5127  1.67423752E-06  3.51919993E-10
  14341.1299  1.65615688E-06  3.47203405E-10
  14419.1699  1.63827144E-06  3.42581324E-10
  14497.6357  1.62057893E-06  3.38052614E-10
  14576.5273  1.60307764E-06  3.33615663E-10
  14655.8486  1.5857654E-06  3.29267835E-10
  14735.6016  1.56864007E-06  3.25007576E-10
  14815.7881  1.55170005E-06  3.20832388E-10
  14896.4111  1.53494386E-06  3.16741161E-10
  14977.4736  1.51836855E-06  3.12731036E-10
  15058.9766  1.50197206E-06  3.08720771E-10
  15140.9229  1.4857518E-06  3.04758968E-10
  15223.3154  1.46970649E-06  3.00873937E-10
  15306.1562  1.4538349E-06  2.97064623E-10
  15389.4482  1.43813543E-06  2.93329167E-10
  15473.1924  1.42260569E-06  2.89666097E-10
  15557.3936  1.40724319E-06  2.86072888E-10
  15642.0518  1.39204599E-06  2.82548263E-10
  15727.1719  1.37701261E-06  2.79091167E-10
  15812.7539  1.36214214E-06  2.75699824E-10
  15898.8027  1.34743277E-06  2.72373069E-10
  15985.3193  1.33288256E-06  2.69109041E-10
  16072.3057  1.31848947E-06  2.65906908E-10
  16159.7676  1.30425144E-06  2.62764532E-10
  16247.7031  1.29016769E-06  2.59681332E-10
  16336.1191  1.27623548E-06  2.56651478E-10
  16425.0156  1.26245402E-06  2.53670834E-10
  16514.3965  1.24882115E-06  2.50745924E-10
  16604.2617  1.23533596E-06  2.47875082E-10
  16694.6191  1.22199583E-06  2.45057197E-10
  16785.4648  1.20880031E-06  2.42291159E-10
  16876.8066  1.19574736E-06  2.39576331E-10
  16968.6445  1.18283617E-06  2.36911851E-10
  17060.9844  1.17006402E-06  2.34295805E-10
  17153.8242  1.15742955E-06  2.3172729E-10
  17247.1719  1.14493093E-06  2.29204877E-10
  17341.0234  1.13256772E-06  2.26728261E-10
  17435.3887  1.12033797E-06  2.24296068E-10
  17530.2676  1.10824078E-06  2.21907409E-10
  17625.6621  1.09627422E-06  2.19561508E-10
  17721.5762  1.08443646E-06  2.17257254E-10
  17818.0117  1.07272615E-06  2.14993939E-10
  17914.9727  1.06114214E-06  2.12770385E-10
  18012.4609  1.04968376E-06  2.1058566E-10
  18110.4785  1.03834975E-06  2.08439141E-10
  18209.0293  1.02713796E-06  2.0632987E-10
  18308.1191  1.01604701E-06  2.04257306E-10
  18407.7461  1.00507611E-06  2.02220518E-10
  18507.916  9.94223456E-07  2.00218772E-10
  18608.6309  9.83488121E-07  1.98251124E-10
  18709.8926  9.72868861E-07  1.96317143E-10
  18811.707  9.6236397E-07  1.94415734E-10
  18914.0742  9.51972652E-07  1.92546146E-10
  19017.  9.41693486E-07  1.90707977E-10
  19120.4844  9.31525392E-07  1.88900354E-10
  19224.5332  9.21466892E-07  1.87122984E-10
  19329.1465  9.11517247E-07  1.85374993E-10
  19434.3301  9.0167498E-07  1.83655841E-10
  19540.0859  8.91938953E-07  1.81964596E-10
  19646.418  8.82308029E-07  1.80300913E-10
  19753.3281  8.72781072E-07  1.7866425E-10
  19860.8184  8.63357116E-07  1.77053969E-10
  19968.8965  8.54034738E-07  1.754695E-10
  20077.5605  8.44813258E-07  1.73854819E-10
  20186.8164  8.35691196E-07  1.72243234E-10
  20296.6699  8.2666736E-07  1.70656489E-10
  20407.1152  8.17741466E-07  1.69094252E-10
  20518.166  8.08912262E-07  1.67556191E-10
  20629.8203  8.00178498E-07  1.66041458E-10
  20742.0801  7.91539264E-07  1.64549832E-10
  20854.9531  7.82992345E-07  1.63080299E-10
  20968.4414  7.74537625E-07  1.61632763E-10
  21082.5449  7.66174423E-07  1.60206959E-10
  21197.2695  7.57902228E-07  1.58802485E-10
  21312.6191  7.4971922E-07  1.57418745E-10
