% Cu Density=8.96
% Energy(eV), Delta, Beta
  2000.  0.000422298035  9.4993622E-05
  2010.8833  0.00041792632  9.31872637E-05
  2021.82605  0.000413599657  9.14152406E-05
  2032.82837  0.000409308792  8.9659261E-05
  2043.89026  0.000405058556  8.79293802E-05
  2055.01245  0.000400852383  8.62328598E-05
  2066.19531  0.000396671938  8.45680552E-05
  2077.43896  0.000392528775  8.29351557E-05
  2088.74365  0.000388428889  8.13337756E-05
  2100.11011  0.000384359795  7.97620378E-05
  2111.53809  0.00038033005  7.82203642E-05
  2123.02881  0.000376342417  7.67083693E-05
  2134.58154  0.000372385926  7.52243359E-05
  2146.19727  0.000368468696  7.37687296E-05
  2157.87622  0.000364592619  7.23412741E-05
  2169.6189  0.000360745937  7.09391388E-05
  2181.42529  0.000356938166  6.95638373E-05
  2193.2959  0.000353170559  6.82152167E-05
  2205.2312  0.000349431561  6.68919602E-05
  2217.23145  0.000345731067  6.55942495E-05
  2229.29688  0.000342069805  6.43217791E-05
  2241.42822  0.000338437385  6.30735231E-05
  2253.62549  0.000334843149  6.18494814E-05
  2265.88892  0.000331287098  6.06492031E-05
  2278.21924  0.000327760761  5.94707817E-05
  2290.61646  0.000324271998  5.8315276E-05
  2303.08154  0.000320819847  5.71820638E-05
  2315.61426  0.000317395286  5.60690096E-05
  2328.21509  0.000314007309  5.49776232E-05
  2340.88452  0.000310654839  5.39075008E-05
  2353.6228  0.000307331298  5.28585078E-05
  2366.43066  0.000304043264  5.18299166E-05
  2379.30811  0.000300789514  5.08210287E-05
  2392.25562  0.000297564577  4.98300142E-05
  2405.27344  0.000294374244  4.88583428E-05
  2418.3623  0.000291216915  4.7905618E-05
  2431.52246  0.000288087846  4.69715233E-05
  2444.75391  0.000284992508  4.60556585E-05
  2458.05762  0.000281929068  4.51573178E-05
  2471.43359  0.000278894033  4.42753335E-05
  2484.88232  0.000275891682  4.34105968E-05
  2498.40454  0.000272920093  4.25627259E-05
  2512.  0.000269976386  4.17313604E-05
  2525.66968  0.000267064403  4.09162312E-05
  2539.41357  0.000264182483  4.01169564E-05
  2553.23242  0.000261328416  3.93330993E-05
  2567.12622  0.000258505228  3.85645944E-05
  2581.0957  0.000255711027  3.78106852E-05
  2595.14136  0.000252944068  3.70707021E-05
  2609.26343  0.000250207057  3.63452091E-05
  2623.46216  0.000247498043  3.56335986E-05
  2637.73828  0.000244815717  3.49354268E-05
  2652.09229  0.000242162409  3.42509047E-05
  2666.52393  0.000239536399  3.35800178E-05
  2681.03467  0.000236936728  3.29224858E-05
  2695.62378  0.000234365376  3.22778469E-05
  2710.29248  0.000231820348  3.1645428E-05
  2725.0415  0.000229301193  3.10249598E-05
  2739.87012  0.000226809541  3.04166715E-05
  2754.77979  0.000224343137  2.98200575E-05
  2769.77026  0.000221901966  2.92349687E-05
  2784.84277  0.000219487309  2.86613558E-05
  2799.99707  0.000217097535  2.80987861E-05
  2815.23364  0.000214732718  2.75470975E-05
  2830.55347  0.000212393614  2.70062374E-05
  2845.95654  0.000210078346  2.64758019E-05
  2861.44336  0.000207787307  2.59556455E-05
  2877.0144  0.000205521224  2.54457282E-05
  2892.67041  0.000203278469  2.49455825E-05
  2908.41162  0.000201059433  2.44551411E-05
  2924.23828  0.00019886464  2.39743422E-05
  2940.15088  0.000196692243  2.35028001E-05
  2956.15063  0.000194542808  2.30404257E-05
  2972.23682  0.000192416934  2.258717E-05
  2988.41089  0.000190312785  2.21426999E-05
  3004.6731  0.000188231104  2.170689E-05
  3021.02344  0.000186172256  2.12797004E-05
  3037.46313  0.000184134668  2.08606707E-05
  3053.99194  0.000182119096  2.04498392E-05
  3070.61108  0.000180125557  2.00471295E-05
  3087.32031  0.000178152492  1.96521014E-05
  3104.12085  0.000176200701  1.92648349E-05
  3121.01245  0.000174270332  1.88851809E-05
  3137.99585  0.000172359898  1.85129065E-05
  3155.07227  0.000170470157  1.81479172E-05
  3172.24121  0.000168601182  1.77901293E-05
  3189.50342  0.000166751459  1.74391498E-05
  3206.85986  0.000164921861  1.70950407E-05
  3224.31055  0.00016311236  1.67577473E-05
  3241.85645  0.000161321615  1.64270095E-05
  3259.49756  0.000159550473  1.61027947E-05
  3277.23486  0.000157798771  1.57850045E-05
  3295.0686  0.000156065216  1.54732425E-05
  3312.99951  0.000154350695  1.51676622E-05
  3331.02783  0.000152654946  1.4868092E-05
  3349.1543  0.000150976848  1.45743679E-05
  3367.37939  0.000149317144  1.42864228E-05
  3385.70361  0.000147675659  1.40041511E-05
  3404.12769  0.000146051563  1.372732E-05
  3422.6521  0.000144445308  1.34559386E-05
  3441.2771  0.000142856588  1.31899315E-05
  3478.83179  0.000139729687  1.26733839E-05
  3497.76245  0.00013819187  1.24227063E-05
  3516.79639  0.000136670438  1.21768444E-05
  3535.93384  0.000135165741  1.19358665E-05
  3555.17529  0.000133677473  1.16996225E-05
  3574.52148  0.000132205125  1.14680033E-05
  3593.9729  0.000130748973  1.12409552E-05
  3613.53052  0.000129308668  1.10183701E-05
  3633.19385  0.000127883846  1.08001323E-05
  3652.96484  0.000126474653  1.05861973E-05
  3672.84326  0.000125080784  1.03764769E-05
  3692.82983  0.000123701742  1.01708056E-05
  3712.92505  0.000122337922  9.9692279E-06
  3733.12964  0.000120988996  9.77162108E-06
  3753.44409  0.000119654658  9.57793418E-06
  3773.86963  0.000118334981  9.38806897E-06
  3794.40576  0.00011702974  9.20190905E-06
  3815.05371  0.000115738629  9.01935982E-06
  3835.81421  0.000114461742  8.84041765E-06
  3856.6875  0.00011319873  8.66500341E-06
  3877.67456  0.000111949324  8.49300613E-06
  3898.77588  0.0001107137  8.32442402E-06
  3919.9917  0.000109491608  8.15919429E-06
  3941.323  0.00010828286  7.99722238E-06
  3962.77075  0.000107087428  7.83847736E-06
  3984.33496  0.000105904954  7.68281643E-06
  4006.01636  0.0001047353  7.53020913E-06
  4027.81641  0.00010357851  7.38061726E-06
  4049.73413  0.000102434344  7.23395442E-06
  4071.77173  0.000101302627  7.09018013E-06
  4093.9292  0.000100183395  6.9492512E-06
  4116.20703  9.9076402E-05  6.81109259E-06
  4138.60596  9.7981545E-05  6.67564245E-06
  4161.12744  9.68987442E-05  6.54289443E-06
  4183.771  9.58276432E-05  6.41273255E-06
  4206.5376  9.47682129E-05  6.28513635E-06
  4229.42871  9.3720475E-05  6.16008674E-06
  4252.44385  9.26841676E-05  6.03749186E-06
  4275.58398  9.16592762E-05  5.91733715E-06
  4298.85107  9.06456626E-05  5.79956213E-06
  4322.24414  8.96429628E-05  5.68409541E-06
  4345.76465  8.86512353E-05  5.57090243E-06
  4369.41309  8.76704798E-05  5.45996454E-06
  4393.18994  8.67004928E-05  5.35122308E-06
  4417.09619  8.57412015E-05  5.24463303E-06
  4441.13281  8.47925185E-05  5.14017393E-06
  4465.30029  8.38540727E-05  5.03772753E-06
  4489.59912  8.29259588E-05  4.93731841E-06
  4514.02979  8.20081259E-05  4.83890426E-06
  4538.59424  8.11000791E-05  4.74235048E-06
  4563.29199  8.02020586E-05  4.64771756E-06
  4588.12402  7.93139625E-05  4.55496547E-06
  4613.09082  7.84354634E-05  4.4641115E-06
  4638.19385  7.75666485E-05  4.37506469E-06
  4663.43408  7.67074307E-05  4.28779413E-06
  4688.81104  7.5857577E-05  4.20219976E-06
  4714.32568  7.50171312E-05  4.11830433E-06
  4739.97998  7.41859621E-05  4.03608919E-06
  4765.77393  7.33637426E-05  3.95543884E-06
  4791.70752  7.2550647E-05  3.87640739E-06
  4817.78271  7.174653E-05  3.79894823E-06
  4844.  7.09509914E-05  3.72301793E-06
  4870.35938  7.01642784E-05  3.64861239E-06
  4896.8623  6.93862676E-05  3.5756841E-06
  4923.50977  6.86166386E-05  3.50417577E-06
  4950.30225  6.78555371E-05  3.43409147E-06
  4977.24023  6.71028392E-05  3.3654112E-06
  5004.32471  6.63581304E-05  3.2980679E-06
  5031.55664  6.56216798E-05  3.23207723E-06
  5058.93701  6.48933637E-05  3.16739624E-06
  5086.46631  6.41730003E-05  3.10398354E-06
  5114.14551  6.34606258E-05  3.04184618E-06
  5141.9751  6.27560803E-05  2.98094119E-06
  5169.95605  6.20590654E-05  2.92123468E-06
  5198.08984  6.13697703E-05  2.86271938E-06
  5226.37598  6.06880458E-05  2.80535505E-06
  5254.81641  6.00136154E-05  2.74908325E-06
  5283.41162  5.93466721E-05  2.69393536E-06
  5312.1626  5.86870265E-05  2.63990864E-06
  5341.06982  5.80344713E-05  2.58698378E-06
  5370.13428  5.73891666E-05  2.53512508E-06
  5399.35693  5.67509342E-05  2.484275E-06
  5428.73877  5.61196139E-05  2.43439536E-06
  5458.28027  5.54953185E-05  2.38552184E-06
  5487.98291  5.48777716E-05  2.33760829E-06
  5517.84668  5.42668276E-05  2.29063403E-06
  5547.87305  5.36626721E-05  2.24460041E-06
  5578.06299  5.30650723E-05  2.19950562E-06
  5608.41699  5.2473908E-05  2.15532532E-06
  5638.93652  5.18893175E-05  2.11203246E-06
  5669.62207  5.13110244E-05  2.06956724E-06
  5700.47412  5.07389632E-05  2.02790329E-06
  5731.49512  5.01732502E-05  1.98708085E-06
  5762.68408  4.96136054E-05  1.94709378E-06
  5794.04248  4.90599741E-05  1.90792957E-06
  5825.57178  4.85125129E-05  1.86954981E-06
  5857.27295  4.7970887E-05  1.83188934E-06
  5889.14697  4.74350927E-05  1.79494998E-06
  5921.19336  4.69052975E-05  1.75875357E-06
  5953.41553  4.63810502E-05  1.72330022E-06
  5985.81152  4.586246E-05  1.68856673E-06
  6018.38477  4.53496541E-05  1.65453582E-06
  6051.13525  4.48422543E-05  1.62117726E-06
  6084.06348  4.43403587E-05  1.58848582E-06
  6117.17139  4.38440766E-05  1.55645637E-06
  6150.45947  4.33528985E-05  1.52502309E-06
  6183.92871  4.28670319E-05  1.49420714E-06
  6217.57959  4.2386604E-05  1.46401192E-06
  6251.41406  4.1911062E-05  1.43441616E-06
  6285.43164  4.14406932E-05  1.4054184E-06
  6319.63525  4.09755812E-05  1.3770042E-06
  6354.0249  4.05151077E-05  1.34915149E-06
  6388.60156  4.00596437E-05  1.32185608E-06
  6423.3667  3.96092837E-05  1.295115E-06
  6458.3208  3.91633985E-05  1.2688846E-06
  6493.46484  3.872241E-05  1.24318194E-06
  6528.80029  3.82863655E-05  1.21799781E-06
  6564.32861  3.7854461E-05  1.19330673E-06
  6600.04932  3.74273222E-05  1.16911599E-06
  6635.96533  3.70049784E-05  1.14541376E-06
  6672.07617  3.6586549E-05  1.12217231E-06
  6708.38379  3.6172758E-05  1.09939867E-06
  6744.88867  3.57636382E-05  1.07708752E-06
  6781.59229  3.53581927E-05  1.05521201E-06
  6818.49561  3.49572838E-05  1.0337784E-06
  6855.6001  3.45609078E-05  1.01278204E-06
  6892.90625  3.4167897E-05  9.92181981E-07
  6930.41553  3.37793426E-05  9.72002681E-07
  6968.12891  3.33951393E-05  9.52231687E-07
  7006.04736  3.30140574E-05  9.32841374E-07
  7044.17236  3.26373156E-05  9.13847771E-07
  7082.50439  3.22647356E-05  8.95237804E-07
  7121.04492  3.1895117E-05  8.76988963E-07
  7159.7959  3.15297075E-05  8.59110685E-07
  7198.75781  3.11682634E-05  8.41595522E-07
  7237.93066  3.08095368E-05  8.24416645E-07
  7277.31738  3.04549139E-05  8.07588606E-07
  7316.91895  3.01040382E-05  7.91101968E-07
  7356.73535  2.97556435E-05  7.74934108E-07
  7396.76855  2.9411267E-05  7.59098214E-07
  7437.01953  2.90703792E-05  7.43580017E-07
  7477.48926  2.87317362E-05  7.28363602E-07
  7518.17969  2.83970112E-05  7.13457666E-07
  7559.0918  2.80654858E-05  6.98851863E-07
  7600.22607  2.77359177E-05  6.84532779E-07
  7641.58447  2.74101876E-05  6.7050604E-07
  7683.16748  2.70873388E-05  6.56762097E-07
  7724.97705  2.67661562E-05  6.43285034E-07
  7767.01416  2.64487571E-05  6.30085935E-07
  7809.27979  2.61337573E-05  6.17149396E-07
  7851.77588  2.5819998E-05  6.04465015E-07
  7894.50244  2.55099767E-05  5.92042795E-07
  7937.4624  2.52017908E-05  5.79867503E-07
  7980.65576  2.48944489E-05  5.67932318E-07
  8024.08398  2.45908013E-05  5.56241901E-07
  8067.74902  2.42881015E-05  5.44783575E-07
  8111.65137  2.39855926E-05  5.33551543E-07
  8155.79199  2.36867781E-05  5.22550465E-07
  8200.17383  2.33876199E-05  5.11769372E-07
  8244.79688  2.30878013E-05  5.01201498E-07
  8289.66211  2.27917462E-05  4.90853097E-07
  8334.77246  2.24930136E-05  4.80706944E-07
  8380.12793  2.21922801E-05  4.70761108E-07
  8425.72949  2.18954283E-05  4.61022267E-07
  8471.58008  2.15914006E-05  4.51474591E-07
  8517.67969  2.12829982E-05  4.42118392E-07
  8564.03027  2.09787268E-05  4.32955602E-07
  8610.63379  2.065646E-05  4.23972722E-07
  8657.49121  2.03245654E-05  4.15168671E-07
  8704.60254  1.99974402E-05  4.06547912E-07
  8751.9707  1.96121564E-05  3.98097313E-07
  8799.5957  1.91994859E-05  3.89816961E-07
  8847.48047  1.87934729E-05  3.81709697E-07
  8895.62598  1.6936443E-05  3.73770149E-07
  8944.03223  1.4483302E-05  3.65996641E-07
  8992.70312  1.49673751E-05  2.78370317E-06
  9041.63965  1.72475429E-05  2.73193837E-06
  9090.84082  1.75575915E-05  2.68113854E-06
  9140.31152  1.78590162E-05  2.63127845E-06
  9190.0498  1.79030721E-05  2.5822344E-06
  9240.05957  1.78752762E-05  2.53406824E-06
  9290.3418  1.78459632E-05  2.48680362E-06
  9340.89648  1.7765864E-05  2.44026501E-06
  9391.72754  1.76750509E-05  2.39456449E-06
  9442.83398  1.7584116E-05  2.3497239E-06
  9494.21875  1.74703073E-05  2.30558544E-06
  9545.88379  1.73534772E-05  2.26225961E-06
  9597.83008  1.72371438E-05  2.21974483E-06
  9650.05859  1.71078354E-05  2.17790193E-06
  9702.57129  1.69780324E-05  2.13683256E-06
  9755.37012  1.68490351E-05  2.09653763E-06
  9808.45508  1.6711816E-05  2.05691117E-06
  9861.83105  1.6575179E-05  2.01802527E-06
  9915.49609  1.64395442E-05  1.97987879E-06
  9969.45312  1.62984088E-05  1.94229233E-06
  10023.7031  1.61583939E-05  1.90542255E-06
  10078.25  1.6019294E-05  1.86924467E-06
  10133.0928  1.58766925E-05  1.83365103E-06
  10188.2344  1.5735297E-05  1.79873803E-06
  10243.6748  1.55947982E-05  1.76447872E-06
  10299.418  1.54521695E-05  1.73077899E-06
  10355.4648  1.53108067E-05  1.69772056E-06
  10411.8164  1.51703143E-05  1.66528423E-06
  10468.4746  1.50285723E-05  1.63338632E-06
  10525.4414  1.48881199E-05  1.60209902E-06
  10582.7168  1.47485471E-05  1.57139857E-06
  10640.3057  1.46083439E-05  1.54121096E-06
  10698.207  1.44694468E-05  1.51160611E-06
  10756.4229  1.4331441E-05  1.4825514E-06
  10814.957  1.41932487E-05  1.45399599E-06
  10873.8076  1.40563734E-05  1.42599367E-06
  10932.9805  1.39203858E-05  1.39850886E-06
  10992.4746  1.37845291E-05  1.37150198E-06
  11052.292  1.36499866E-05  1.34501454E-06
  11112.4355  1.35163382E-05  1.31902004E-06
  11172.9062  1.33830708E-05  1.29347779E-06
  11233.7051  1.32511059E-05  1.2684327E-06
  11294.8359  1.31200431E-05  1.24384883E-06
  11356.2998  1.29895425E-05  1.2197014E-06
  11418.0977  1.28603297E-05  1.19602487E-06
  11480.2314  1.27320063E-05  1.17278626E-06
  11542.7041  1.26043524E-05  1.14997022E-06
  11605.5156  1.24779745E-05  1.12759665E-06
  11668.6689  1.23524969E-05  1.10563576E-06
  11732.166  1.2227807E-05  1.08407528E-06
  11796.0088  1.21043722E-05  1.06293385E-06
  11860.2002  1.1981826E-05  1.04218282E-06
  11924.7402  1.18601392E-05  1.02181059E-06
  11989.6309  1.1739683E-05  1.00183831E-06
  12054.874  1.16201199E-05  9.82234269E-07
  12120.4736  1.15014673E-05  9.62994704E-07
  12186.4297  1.13840242E-05  9.44133831E-07
  12252.7451  1.12674579E-05  9.25615893E-07
  12319.4209  1.11518402E-05  9.07443848E-07
  12386.459  1.10374067E-05  8.89627358E-07
  12453.8633  1.09238435E-05  8.72141868E-07
  12521.6328  1.08112608E-05  8.54986411E-07
  12589.7725  1.06998341E-05  8.38168262E-07
  12658.2822  1.05892641E-05  8.21660024E-07
  12727.1641  1.04796827E-05  8.05464026E-07
  12796.4219  1.03712318E-05  7.89588682E-07
  12866.0566  1.0263625E-05  7.74006139E-07
  12936.0693  1.0157014E-05  7.58724468E-07
  13006.4639  1.00515099E-05  7.43743328E-07
  13077.2422  9.94685161E-06  7.29033616E-07
  13148.4043  9.84319558E-06  7.14607609E-07
  13219.9531  9.74062186E-06  7.00466217E-07
  13291.8926  9.63887487E-06  6.86587725E-07
  13364.2236  9.53812378E-06  6.72978445E-07
  13436.9482  9.43842406E-06  6.59640079E-07
  13510.0684  9.3395347E-06  6.46544208E-07
  13583.5859  9.24163214E-06  6.33704076E-07
  13657.5029  9.1447564E-06  6.2112025E-07
  13731.8242  9.04868193E-06  6.08768005E-07
  13806.5479  8.95358608E-06  5.96660243E-07
  13881.6797  8.85948702E-06  5.8479236E-07
  13957.2188  8.76617469E-06  5.73142245E-07
  14033.1709  8.67382369E-06  5.61721379E-07
  14109.5352  8.58244584E-06  5.50528455E-07
  14186.3145  8.4918338E-06  5.39542555E-07
  14263.5127  8.4021658E-06  5.28774251E-07
  14341.1299  8.31344641E-06  5.18222066E-07
  14419.1699  8.22549191E-06  5.0786133E-07
  14497.6357  8.13846691E-06  4.97707902E-07
  14576.5273  8.05235686E-06  4.87757859E-07
  14655.8486  7.96700533E-06  4.77994206E-07
  14735.6016  7.88255784E-06  4.68426947E-07
  14815.7881  7.79899347E-06  4.59049204E-07
  14896.4111  7.71617579E-06  4.49845288E-07
  14977.4736  7.63423668E-06  4.40825289E-07
  15058.9766  7.55315114E-06  4.3198429E-07
  15140.9229  7.4728141E-06  4.2331024E-07
  15223.3154  7.39333063E-06  4.1480979E-07
  15306.1562  7.31467298E-06  4.06478733E-07
  15389.4482  7.23675475E-06  3.9830411E-07
  15473.1924  7.15966689E-06  3.90294758E-07
  15557.3936  7.08337575E-06  3.82443289E-07
  15642.0518  7.00781584E-06  3.7474075E-07
  15727.1719  6.93306129E-06  3.67194076E-07
  15812.7539  6.85908026E-06  3.59796587E-07
  15898.8027  6.78581773E-06  3.52542429E-07
  15985.3193  6.71333828E-06  3.45434103E-07
  16072.3057  6.64160552E-06  3.38466947E-07
  16159.7676  6.57057399E-06  3.31633174E-07
  16247.7031  6.50030415E-06  3.2493827E-07
  16336.1191  6.43075828E-06  3.18374646E-07
  16425.0156  6.36190953E-06  3.11937697E-07
  16514.3965  6.29379701E-06  3.05631545E-07
  16604.2617  6.22638481E-06  2.99449596E-07
  16694.6191  6.15964382E-06  2.93388666E-07
  16785.4648  6.09362132E-06  2.87450206E-07
  16876.8066  6.02827731E-06  2.81628644E-07
  16968.6445  5.96360042E-06  2.75921394E-07
  17060.9844  5.8996161E-06  2.70329366E-07
  17153.8242  5.83629344E-06  2.64848154E-07
  17247.1719  5.77362152E-06  2.59474319E-07
  17341.0234  5.71162491E-06  2.54210192E-07
  17435.3887  5.6502613E-06  2.49049577E-07
  17530.2676  5.58952934E-06  2.43991224E-07
  17625.6621  5.52944994E-06  2.39036183E-07
  17721.5762  5.46999172E-06  2.34177648E-07
  17818.0117  5.41115423E-06  2.29415491E-07
  17914.9727  5.3529493E-06  2.24749925E-07
  18012.4609  5.29534009E-06  2.20176219E-07
  18110.4785  5.23833342E-06  2.15694143E-07
  18209.0293  5.18194065E-06  2.11303103E-07
  18308.1191  5.12613406E-06  2.06999076E-07
  18407.7461  5.07091909E-06  2.02781081E-07
  18507.916  5.01629847E-06  1.98649516E-07
  18608.6309  4.96223447E-06  1.94598627E-07
  18709.8926  4.90874072E-06  1.90629422E-07
  18811.707  4.85582223E-06  1.86740976E-07
  18914.0742  4.80345443E-06  1.8292873E-07
  19017.  4.75164325E-06  1.79193577E-07
  19120.4844  4.7003914E-06  1.75534566E-07
  19224.5332  4.64967161E-06  1.71947619E-07
  19329.1465  4.59949342E-06  1.68432976E-07
  19434.3301  4.54985684E-06  1.64990624E-07
  19540.0859  4.50073412E-06  1.61616313E-07
  19646.418  4.45213709E-06  1.58310726E-07
  19753.3281  4.40406529E-06  1.55073181E-07
  19860.8184  4.35649099E-06  1.51898206E-07
  19968.8965  4.30942646E-06  1.48788061E-07
  20077.5605  4.2628717E-06  1.45741311E-07
  20186.8164  4.21680079E-06  1.42754715E-07
  20296.6699  4.17122601E-06  1.39828941E-07
  20407.1152  4.12614554E-06  1.36963322E-07
  20518.166  4.08153301E-06  1.34153836E-07
  20629.8203  4.0374016E-06  1.31401734E-07
  20742.0801  3.99374903E-06  1.28706503E-07
  20854.9531  3.95054849E-06  1.2606408E-07
  20968.4414  3.90781543E-06  1.23476042E-07
  21082.5449  3.86554439E-06  1.2094138E-07
  21197.2695  3.82371854E-06  1.1845647E-07
  21312.6191  3.78234472E-06  1.16022925E-07
  21428.5957  3.74141791E-06  1.13639146E-07
  21545.2051  3.70092107E-06  1.11302775E-07
  21662.4473  3.66086351E-06  1.09014394E-07
  21780.3262  3.62123774E-06  1.06773108E-07
  21898.8496  3.58202578E-06  1.04575918E-07
  22018.0176  3.54323788E-06  1.02424075E-07
  22137.832  3.50486994E-06  1.00316512E-07
  22258.3008  3.4669099E-06  9.82507089E-08
  22379.4238  3.42936096E-06  9.6227744E-08
  22501.2051  3.39221788E-06  9.42460474E-08
  22623.6504  3.35547043E-06  9.23039494E-08
