% lipid [H62.5C31.5O6.3]; Density=1.
% Energy(eV), Delta, Beta
  2000.  5.92061733E-05  1.68382076E-06
  2010.8833  5.85584567E-05  1.64891958E-06
  2021.82605  5.7917805E-05  1.61474168E-06
  2032.82837  5.7284371E-05  1.58106138E-06
  2043.89026  5.6657962E-05  1.54799272E-06
  2055.01245  5.60384033E-05  1.51561562E-06
  2066.19531  5.54255312E-05  1.48389722E-06
  2077.43896  5.48193566E-05  1.45283821E-06
  2088.74365  5.42198068E-05  1.4224297E-06
  2100.11011  5.3626889E-05  1.39264091E-06
  2111.53809  5.30404905E-05  1.36347171E-06
  2123.02881  5.24604766E-05  1.33491221E-06
  2134.58154  5.18868328E-05  1.30693752E-06
  2146.19727  5.13194682E-05  1.27954627E-06
  2157.87622  5.0758299E-05  1.25272913E-06
  2169.6189  5.02033545E-05  1.22645883E-06
  2181.42529  4.96545035E-05  1.20073764E-06
  2193.2959  4.91116516E-05  1.17555624E-06
  2205.2312  4.8574766E-05  1.15088312E-06
  2217.23145  4.80437448E-05  1.12672501E-06
  2229.29688  4.75185407E-05  1.10307576E-06
  2241.42822  4.69991719E-05  1.07991139E-06
  2253.62549  4.64854893E-05  1.05723325E-06
  2265.88892  4.59774237E-05  1.0350318E-06
  2278.21924  4.54749133E-05  1.01327794E-06
  2290.61646  4.49779E-05  9.91981324E-07
  2303.08154  4.44863035E-05  9.7113093E-07
  2315.61426  4.40002223E-05  9.50708852E-07
  2328.21509  4.35194488E-05  9.30716396E-07
  2340.88452  4.30439322E-05  9.11142934E-07
  2353.6228  4.25736253E-05  8.91961747E-07
  2366.43066  4.21084478E-05  8.73184376E-07
  2379.30811  4.16483672E-05  8.5480093E-07
  2392.25562  4.11934161E-05  8.36799131E-07
  2405.27344  4.07434418E-05  8.19176933E-07
  2418.3623  4.02983824E-05  8.01923647E-07
  2431.52246  3.98582306E-05  7.85023019E-07
  2444.75391  3.94228882E-05  7.68479026E-07
  2458.05762  3.89923043E-05  7.52280869E-07
  2471.43359  3.85664607E-05  7.36413369E-07
  2484.88232  3.81452701E-05  7.20881246E-07
  2498.40454  3.77286924E-05  7.05674097E-07
  2512.  3.73167422E-05  6.90780325E-07
  2525.66968  3.69092886E-05  6.76200955E-07
  2539.41357  3.65062915E-05  6.6192672E-07
  2553.23242  3.61077073E-05  6.47947218E-07
  2567.12622  3.57134813E-05  6.34263642E-07
  2581.0957  3.53235991E-05  6.20863887E-07
  2595.14136  3.49380243E-05  6.0773732E-07
  2609.26343  3.45566623E-05  5.94888377E-07
  2623.46216  3.41794876E-05  5.82310975E-07
  2637.73828  3.38064601E-05  5.69998861E-07
  2652.09229  3.34374963E-05  5.57946578E-07
  2666.52393  3.30725888E-05  5.46142076E-07
  2681.03467  3.27116686E-05  5.34577055E-07
  2695.62378  3.23547029E-05  5.2325737E-07
  2710.29248  3.20016588E-05  5.12174438E-07
  2725.0415  3.16524965E-05  5.01323029E-07
  2739.87012  3.13071578E-05  4.90701893E-07
  2754.77979  3.09656098E-05  4.80301765E-07
  2769.77026  3.06278198E-05  4.70119602E-07
  2784.84277  3.02937078E-05  4.60153331E-07
  2799.99707  2.9963272E-05  4.50397039E-07
  2815.23364  2.96364615E-05  4.40846691E-07
  2830.55347  2.93132143E-05  4.31498876E-07
  2845.95654  2.89935106E-05  4.22337479E-07
  2861.44336  2.86773102E-05  4.13362926E-07
  2877.0144  2.83645604E-05  4.04579538E-07
  2892.67041  2.80552613E-05  3.95983221E-07
  2908.41162  2.77493546E-05  3.87569884E-07
  2924.23828  2.74467857E-05  3.79335518E-07
  2940.15088  2.71475565E-05  3.71269067E-07
  2956.15063  2.68515942E-05  3.63370702E-07
  2972.23682  2.65588715E-05  3.55641077E-07
  2988.41089  2.62693557E-05  3.48073343E-07
  3004.6731  2.59830049E-05  3.40664997E-07
  3021.02344  2.5699781E-05  3.3341496E-07
  3037.46313  2.54196766E-05  3.2631192E-07
  3053.99194  2.51426427E-05  3.19358548E-07
  3070.61108  2.48686229E-05  3.12554022E-07
  3087.32031  2.45976316E-05  3.05888847E-07
  3104.12085  2.43295999E-05  2.99365297E-07
  3121.01245  2.40644913E-05  2.92980531E-07
  3137.99585  2.38023076E-05  2.8672747E-07
  3155.07227  2.35429743E-05  2.80606599E-07
  3172.24121  2.32864732E-05  2.74616582E-07
  3189.50342  2.30328078E-05  2.68750028E-07
  3206.85986  2.27819E-05  2.63007905E-07
  3224.31055  2.25337317E-05  2.57389075E-07
  3241.85645  2.22882809E-05  2.5188487E-07
  3259.49756  2.20455076E-05  2.46498274E-07
  3277.23486  2.18053774E-05  2.4122744E-07
  3295.0686  2.15679156E-05  2.36063229E-07
  3312.99951  2.13330386E-05  2.31010077E-07
  3331.02783  2.11007209E-05  2.26064657E-07
  3349.1543  2.0870968E-05  2.21222265E-07
  3367.37939  2.06437144E-05  2.16483301E-07
  3385.70361  2.04189382E-05  2.1184556E-07
  3404.12769  2.01966432E-05  2.07302548E-07
  3422.6521  1.99767637E-05  2.02856754E-07
  3441.2771  1.97592854E-05  1.98506143E-07
  3460.00342  1.95441899E-05  1.94244365E-07
  3478.83179  1.93314372E-05  1.90074573E-07
  3497.76245  1.91210056E-05  1.85993187E-07
  3516.79639  1.89129005E-05  1.81995475E-07
  3535.93384  1.870706E-05  1.78084179E-07
  3555.17529  1.85034678E-05  1.74255746E-07
  3574.52148  1.83021166E-05  1.70506581E-07
  3593.9729  1.81029591E-05  1.66837893E-07
  3613.53052  1.7905968E-05  1.6324681E-07
  3633.19385  1.77111506E-05  1.59729751E-07
  3652.96484  1.75184414E-05  1.56288209E-07
  3672.84326  1.73278404E-05  1.52920364E-07
  3692.82983  1.71393294E-05  1.49622949E-07
  3712.92505  1.69528721E-05  1.46397042E-07
  3733.12964  1.6768452E-05  1.43239305E-07
  3753.44409  1.65860511E-05  1.40147762E-07
  3773.86963  1.64056328E-05  1.3712274E-07
  3794.40576  1.62271881E-05  1.34161212E-07
  3815.05371  1.60506897E-05  1.31260933E-07
  3835.81421  1.5876114E-05  1.28423238E-07
  3856.6875  1.57034519E-05  1.25646096E-07
  3877.67456  1.55326888E-05  1.22927389E-07
  3898.77588  1.53637811E-05  1.202676E-07
  3919.9917  1.51967206E-05  1.1766398E-07
  3941.323  1.50314818E-05  1.15114659E-07
  3962.77075  1.48680383E-05  1.12620917E-07
  3984.33496  1.47063856E-05  1.10182796E-07
  4006.01636  1.45465028E-05  1.07799188E-07
  4027.81641  1.43883526E-05  1.05466803E-07
  4049.73413  1.42319432E-05  1.03180618E-07
  4071.77173  1.40772372E-05  1.00940845E-07
  4093.9292  1.39242138E-05  9.87496094E-08
  4116.20703  1.37728675E-05  9.66049996E-08
  4138.60596  1.36231747E-05  9.45061487E-08
  4161.12744  1.34751017E-05  9.24531065E-08
  4183.771  1.33286512E-05  9.04442317E-08
  4206.5376  1.31837942E-05  8.84788705E-08
  4229.42871  1.30405078E-05  8.65564687E-08
  4252.44385  1.28987986E-05  8.46743973E-08
  4275.58398  1.27586418E-05  8.28329618E-08
  4298.85107  1.26199984E-05  8.10314589E-08
  4322.24414  1.24828812E-05  7.92688368E-08
  4345.76465  1.23472564E-05  7.75443283E-08
  4369.41309  1.22131032E-05  7.58574217E-08
  4393.18994  1.20804234E-05  7.4206568E-08
  4417.09619  1.19491897E-05  7.25913836E-08
  4441.13281  1.18193793E-05  7.10115842E-08
  4465.30029  1.16909923E-05  6.94650666E-08
  4489.59912  1.15640014E-05  6.79522287E-08
  4514.02979  1.14383938E-05  6.64723174E-08
  4538.59424  1.13141596E-05  6.50239187E-08
  4563.29199  1.11912786E-05  6.3607196E-08
  4588.12402  1.1069731E-05  6.2221325E-08
  4613.09082  1.09495204E-05  6.08646999E-08
  4638.19385  1.08306149E-05  5.95375056E-08
  4663.43408  1.07129972E-05  5.82393511E-08
  4688.81104  1.05966756E-05  5.69691068E-08
  4714.32568  1.04816172E-05  5.57265487E-08
  4739.97998  1.03678058E-05  5.45112826E-08
  4765.77393  1.02552394E-05  5.33216138E-08
  4791.70752  1.01438982E-05  5.21581391E-08
  4817.78271  1.00337629E-05  5.1020006E-08
  4844.  9.92483456E-06  4.99060668E-08
  4870.35938  9.81709127E-06  4.88166556E-08
  4896.8623  9.7105185E-06  4.77509658E-08
  4923.50977  9.60511534E-06  4.67080739E-08
  4950.30225  9.50085632E-06  4.56879796E-08
  4977.24023  9.39773145E-06  4.46902497E-08
  5004.32471  9.29573525E-06  4.37136336E-08
  5031.55664  9.19484592E-06  4.27583551E-08
  5058.93701  9.09505161E-06  4.18238386E-08
  5086.46631  8.99635052E-06  4.09092458E-08
  5114.14551  8.89872172E-06  4.00148217E-08
  5141.9751  8.8021543E-06  3.91398984E-08
  5169.95605  8.70664644E-06  3.82840142E-08
  5198.08984  8.61217268E-06  3.74468669E-08
  5226.37598  8.51872846E-06  3.66278883E-08
  5254.81641  8.42630561E-06  3.58263357E-08
  5283.41162  8.33488502E-06  3.50423441E-08
  5312.1626  8.2444576E-06  3.42754838E-08
  5341.06982  8.15501517E-06  3.35250299E-08
  5370.13428  8.06654316E-06  3.27911565E-08
  5399.35693  7.97903613E-06  3.20731459E-08
  5428.73877  7.89248315E-06  3.13705186E-08
  5458.28027  7.8068706E-06  3.06834274E-08
  5487.98291  7.72219028E-06  3.00112575E-08
  5517.84668  7.63843491E-06  2.93537177E-08
  5547.87305  7.55558722E-06  2.87106108E-08
  5578.06299  7.4736422E-06  2.80817058E-08
  5608.41699  7.39259031E-06  2.74665624E-08
  5638.93652  7.31241744E-06  2.68649742E-08
  5669.62207  7.23311678E-06  2.62763606E-08
  5700.47412  7.1546815E-06  2.57003165E-08
  5731.49512  7.07709387E-06  2.5137032E-08
  5762.68408  7.00035253E-06  2.4585864E-08
  5794.04248  6.92444837E-06  2.40466775E-08
  5825.57178  6.8493664E-06  2.35193518E-08
  5857.27295  6.77510388E-06  2.30034072E-08
  5889.14697  6.70164854E-06  2.24986998E-08
  5921.19336  6.62899265E-06  2.20051177E-08
  5953.41553  6.55712302E-06  2.15223483E-08
  5985.81152  6.48603691E-06  2.10501501E-08
  6018.38477  6.41572024E-06  2.0588331E-08
  6051.13525  6.34617254E-06  2.01365253E-08
  6084.06348  6.27738245E-06  1.96946512E-08
  6117.17139  6.20933724E-06  1.92625897E-08
  6150.45947  6.14203327E-06  1.88396179E-08
  6183.92871  6.07546008E-06  1.84258635E-08
  6217.57959  6.00960948E-06  1.80212396E-08
  6251.41406  5.94447602E-06  1.76254513E-08
  6285.43164  5.88005196E-06  1.72384347E-08
  6319.63525  5.81632457E-06  1.68599534E-08
  6354.0249  5.7532925E-06  1.64896541E-08
  6388.60156  5.69094482E-06  1.61274709E-08
  6423.3667  5.62927244E-06  1.57733417E-08
  6458.3208  5.56827126E-06  1.54267941E-08
  6493.46484  5.50793266E-06  1.50879149E-08
  6528.80029  5.44824707E-06  1.47565196E-08
  6564.32861  5.38921358E-06  1.44322403E-08
  6600.04932  5.33082311E-06  1.41151606E-08
  6635.96533  5.27306338E-06  1.38050895E-08
  6672.07617  5.21593483E-06  1.35017491E-08
  6708.38379  5.1594252E-06  1.32051001E-08
  6744.88867  5.10352766E-06  1.29150486E-08
  6781.59229  5.04823947E-06  1.26312862E-08
  6818.49561  4.99355065E-06  1.23538051E-08
  6855.6001  4.93945254E-06  1.20825128E-08
  6892.90625  4.88594651E-06  1.18169865E-08
  6930.41553  4.83301983E-06  1.15573933E-08
  6968.12891  4.7806675E-06  1.1303543E-08
  7006.04736  4.72888541E-06  1.10551195E-08
  7044.17236  4.67766449E-06  1.08122471E-08
  7082.50439  4.62699882E-06  1.057475E-08
  7121.04492  4.57688566E-06  1.0342398E-08
  7159.7959  4.52731365E-06  1.01151958E-08
  7198.75781  4.4782787E-06  9.89305526E-09
  7237.93066  4.42977944E-06  9.67570202E-09
  7277.31738  4.38180496E-06  9.46318757E-09
  7316.91895  4.33435071E-06  9.25541688E-09
  7356.73535  4.28741396E-06  9.05218389E-09
  7396.76855  4.24098607E-06  8.85350548E-09
  7437.01953  4.19506114E-06  8.65918004E-09
  7477.48926  4.14963552E-06  8.46900328E-09
  7518.17969  4.10470147E-06  8.28305335E-09
  7559.0918  4.06025492E-06  8.10123435E-09
  7600.22607  4.01629268E-06  7.92342725E-09
  7641.58447  3.9728061E-06  7.74957609E-09
  7683.16748  3.92979155E-06  7.5795743E-09
  7724.97705  3.88724584E-06  7.41324291E-09
  7767.01416  3.84516079E-06  7.25064808E-09
  7809.27979  3.80353208E-06  7.09162418E-09
  7851.77588  3.76235471E-06  6.93606994E-09
  7894.50244  3.72162344E-06  6.78401024E-09
  7937.4624  3.68133374E-06  6.63530786E-09
  7980.65576  3.64148218E-06  6.48990151E-09
  8024.08398  3.60206195E-06  6.34767927E-09
  8067.74902  3.56306896E-06  6.20853235E-09
  8111.65137  3.5245007E-06  6.07243189E-09
  8155.79199  3.48635012E-06  5.93936411E-09
  8200.17383  3.44861269E-06  5.80923398E-09
  8244.79688  3.41128543E-06  5.68194869E-09
  8289.66211  3.37436245E-06  5.55752555E-09
  8334.77246  3.33783987E-06  5.43581624E-09
  8380.12793  3.30171429E-06  5.31678035E-09
  8425.72949  3.26598047E-06  5.20042409E-09
  8471.58008  3.23063296E-06  5.08661868E-09
  8517.67969  3.19566834E-06  4.97534236E-09
  8564.03027  3.16108208E-06  4.86655072E-09
  8610.63379  3.12687234E-06  4.76015805E-09
  8657.49121  3.09303368E-06  4.65610972E-09
  8704.60254  3.05956291E-06  4.5543973E-09
  8751.9707  3.0264539E-06  4.45491155E-09
  8799.5957  2.99370413E-06  4.3576156E-09
  8847.48047  2.96130816E-06  4.2625139E-09
  8895.62598  2.92926438E-06  4.1694781E-09
  8944.03223  2.89756872E-06  4.07851664E-09
  8992.70312  2.86621525E-06  3.98958866E-09
  9041.63965  2.83520217E-06  3.90261512E-09
  9090.84082  2.80452582E-06  3.8175898E-09
  9140.31152  2.77418121E-06  3.73446518E-09
  9190.0498  2.74416607E-06  3.65315778E-09
  9240.05957  2.71447584E-06  3.5736536E-09
  9290.3418  2.68510644E-06  3.49594242E-09
  9340.89648  2.65605695E-06  3.41992967E-09
  9391.72754  2.62732078E-06  3.34561667E-09
  9442.83398  2.59889657E-06  3.27298144E-09
  9494.21875  2.57078068E-06  3.20192051E-09
  9545.88379  2.54296924E-06  3.1324574E-09
  9597.83008  2.51545862E-06  3.06454884E-09
  9650.05859  2.48824745E-06  2.99810332E-09
  9702.57129  2.46133095E-06  2.93314129E-09
  9755.37012  2.43470572E-06  2.86964075E-09
  9808.45508  2.40836926E-06  2.80754997E-09
  9861.83105  2.38231678E-06  2.74684919E-09
  9915.49609  2.3565467E-06  2.68752043E-09
  9969.45312  2.33105743E-06  2.62946154E-09
  10023.7031  2.30584396E-06  2.57268606E-09
  10078.25  2.28090266E-06  2.51714249E-09
  10133.0928  2.25623194E-06  2.46281595E-09
  10188.2344  2.23182792E-06  2.40971598E-09
  10243.6748  2.20768857E-06  2.35780351E-09
  10299.418  2.1838116E-06  2.30701924E-09
  10355.4648  2.16019293E-06  2.25737407E-09
  10411.8164  2.13682961E-06  2.20884666E-09
  10468.4746  2.11372026E-06  2.16137797E-09
  10525.4414  2.09086033E-06  2.11497819E-09
  10582.7168  2.06824825E-06  2.06962136E-09
  10640.3057  2.04588036E-06  2.02524864E-09
  10698.207  2.02375486E-06  1.98187911E-09
  10756.4229  2.00186901E-06  1.93947702E-09
  10814.957  1.98022053E-06  1.89800553E-09
  10873.8076  1.95880716E-06  1.85747329E-09
  10932.9805  1.9376248E-06  1.81784132E-09
  10992.4746  1.91667209E-06  1.77908266E-09
  11052.292  1.89594607E-06  1.74119374E-09
  11112.4355  1.87544447E-06  1.70415071E-09
  11172.9062  1.85516546E-06  1.66791425E-09
  11233.7051  1.8351061E-06  1.63249847E-09
  11294.8359  1.81526343E-06  1.5978685E-09
  11356.2998  1.79563506E-06  1.56400159E-09
  11418.0977  1.77621951E-06  1.53090141E-09
  11480.2314  1.75701393E-06  1.4985353E-09
  11542.7041  1.73801664E-06  1.46688828E-09
  11605.5156  1.71922477E-06  1.43595147E-09
  11668.6689  1.70063686E-06  1.40570211E-09
  11732.166  1.68225006E-06  1.37612433E-09
  11796.0088  1.66406221E-06  1.34721023E-09
  11860.2002  1.6460707E-06  1.31893851E-09
  11924.7402  1.62827382E-06  1.29128874E-09
  11989.6309  1.61066953E-06  1.26426414E-09
  12054.874  1.5932568E-06  1.23783916E-09
  12120.4736  1.57603222E-06  1.21200294E-09
  12186.4297  1.55899431E-06  1.18675125E-09
  12252.7451  1.54214035E-06  1.1620499E-09
  12319.4209  1.52546897E-06  1.13789556E-09
  12386.459  1.5089779E-06  1.114283E-09
  12453.8633  1.49266509E-06  1.09119791E-09
  12521.6328  1.47652941E-06  1.06862663E-09
  12589.7725  1.46056777E-06  1.04656339E-09
  12658.2822  1.44477929E-06  1.02498687E-09
  12727.1641  1.42916178E-06  1.00388819E-09
  12796.4219  1.41371277E-06  9.8326558E-10
  12866.0566  1.3984311E-06  9.63099711E-10
  12936.0693  1.38331472E-06  9.4338648E-10
  13006.4639  1.36836184E-06  9.24114396E-10
  13077.2422  1.35357072E-06  9.05260256E-10
  13148.4043  1.33893991E-06  8.86826668E-10
  13219.9531  1.32446735E-06  8.68805694E-10
  13291.8926  1.31015156E-06  8.51185511E-10
  13364.2236  1.2959905E-06  8.33958236E-10
  13436.9482  1.28198258E-06  8.17118873E-10
  13510.0684  1.2681262E-06  8.00645883E-10
  13583.5859  1.25441977E-06  7.84540266E-10
  13657.5029  1.24086171E-06  7.68797692E-10
  13731.8242  1.22745053E-06  7.53401452E-10
  13806.5479  1.21418464E-06  7.38351269E-10
  13881.6797  1.20106188E-06  7.23636762E-10
  13957.2188  1.18808111E-06  7.09242998E-10
  14033.1709  1.17524019E-06  6.95169089E-10
  14109.5352  1.1625383E-06  6.81410373E-10
  14186.3145  1.14997476E-06  6.67956024E-10
  14263.5127  1.13754686E-06  6.54800936E-10
  14341.1299  1.12525345E-06  6.41941389E-10
  14419.1699  1.11309271E-06  6.29359342E-10
  14497.6357  1.1010635E-06  6.17058182E-10
  14576.5273  1.08916424E-06  6.05033024E-10
  14655.8486  1.07739368E-06  5.93273874E-10
  14735.6016  1.06575033E-06  5.81777959E-10
  14815.7881  1.05423294E-06  5.70536896E-10
  14896.4111  1.04284049E-06  5.59540358E-10
  14977.4736  1.03157095E-06  5.4878746E-10
  15058.9766  1.0204235E-06  5.38239453E-10
  15140.9229  1.00939667E-06  5.27909938E-10
  15223.3154  9.98489099E-07  5.17808629E-10
  15306.1562  9.87699536E-07  5.07931475E-10
  15389.4482  9.77026389E-07  4.98268593E-10
  15473.1924  9.66468974E-07  4.88820484E-10
  15557.3936  9.5602536E-07  4.79579987E-10
  15642.0518  9.45695092E-07  4.70541328E-10
  15727.1719  9.35476407E-07  4.61703203E-10
  15812.7539  9.25368226E-07  4.53059146E-10
  15898.8027  9.15369185E-07  4.44605297E-10
  15985.3193  9.05478259E-07  4.36337133E-10
  16072.3057  8.95694427E-07  4.28251351E-10
  16159.7676  8.86016267E-07  4.2034165E-10
  16247.7031  8.76442982E-07  4.12606754E-10
  16336.1191  8.66972982E-07  4.05039974E-10
  16425.0156  8.57605528E-07  3.97637867E-10
  16514.3965  8.48339141E-07  3.90398658E-10
  16604.2617  8.39173254E-07  3.83317156E-10
  16694.6191  8.3010633E-07  3.76390558E-10
  16785.4648  8.21137576E-07  3.69614894E-10
  16876.8066  8.12265682E-07  3.62987029E-10
  16968.6445  8.03489854E-07  3.56503965E-10
  17060.9844  7.94808614E-07  3.50161622E-10
  17153.8242  7.86221392E-07  3.43957585E-10
  17247.1719  7.77727053E-07  3.37887662E-10
  17341.0234  7.69324686E-07  3.31950217E-10
  17435.3887  7.61012984E-07  3.26141975E-10
  17530.2676  7.52791095E-07  3.20460491E-10
  17625.6621  7.44658053E-07  3.14902493E-10
  17721.5762  7.36613117E-07  3.09463455E-10
  17818.0117  7.28655209E-07  3.04141823E-10
  17914.9727  7.20783191E-07  2.98934488E-10
  18012.4609  7.12996325E-07  2.93840452E-10
  18110.4785  7.05293644E-07  2.88857105E-10
  18209.0293  6.97674238E-07  2.83980284E-10
  18308.1191  6.90137028E-07  2.79209017E-10
  18407.7461  6.82681332E-07  2.74539891E-10
  18507.916  6.75306126E-07  2.69970934E-10
  18608.6309  6.68010784E-07  2.65499789E-10
  18709.8926  6.60794456E-07  2.61124705E-10
  18811.707  6.53655945E-07  2.56842214E-10
  18914.0742  6.46594742E-07  2.52652177E-10
  19017.  6.39609709E-07  2.48551763E-10
  19120.4844  6.32700107E-07  2.44537834E-10
  19224.5332  6.25865368E-07  2.40610587E-10
  19329.1465  6.1910464E-07  2.36766273E-10
  19434.3301  6.12416841E-07  2.33003228E-10
  19540.0859  6.0580129E-07  2.29321104E-10
  19646.418  5.99257191E-07  2.25716709E-10
  19753.3281  5.92783806E-07  2.22187976E-10
  19860.8184  5.86380565E-07  2.18875695E-10
  19968.8965  5.80046276E-07  2.15650428E-10
  20077.5605  5.7378054E-07  2.12458703E-10
  20186.8164  5.67582902E-07  2.09142717E-10
  20296.6699  5.61452055E-07  2.05878939E-10
  20407.1152  5.55387714E-07  2.02683342E-10
  20518.166  5.49388574E-07  1.99555553E-10
  20629.8203  5.43454121E-07  1.96492558E-10
  20742.0801  5.37584015E-07  1.93493332E-10
  20854.9531  5.31777175E-07  1.90557556E-10
  20968.4414  5.26033034E-07  1.87682384E-10
  21082.5449  5.20351023E-07  1.84866719E-10
  21197.2695  5.14730687E-07  1.82109813E-10
  21312.6191  5.09170945E-07  1.79409598E-10
