% Mica KAl3Si3O12F2H2 Density=3.2
% Energy(eV), Delta, Beta
  2000.  0.000161418851  2.21844239E-05
  2010.8833  0.000159925476  2.17637225E-05
  2021.82605  0.00015842673  2.13507465E-05
  2032.82837  0.000156926617  2.09423488E-05
  2043.89026  0.000155439542  2.05404394E-05
  2055.01245  0.000153951973  2.01461735E-05
  2066.19531  0.000152465305  1.97589761E-05
  2077.43896  0.000150991124  1.93790911E-05
  2088.74365  0.000149519445  1.90051123E-05
  2100.11011  0.000148053135  1.86373836E-05
  2111.53809  0.000146600156  1.82766908E-05
  2123.02881  0.000145151396  1.792271E-05
  2134.58154  0.000143709927  1.7575303E-05
  2146.19727  0.000142282006  1.72345899E-05
  2157.87622  0.000140859789  1.69001596E-05
  2169.6189  0.000139446303  1.65717156E-05
  2181.42529  0.000138046555  1.62496053E-05
  2193.2959  0.00013665366  1.59333431E-05
  2205.2312  0.00013527034  1.56229307E-05
  2217.23145  0.000133900699  1.53185356E-05
  2229.29688  0.000132538698  1.5019903E-05
  2241.42822  0.000131186986  1.47267665E-05
  2253.62549  0.000129848893  1.44393489E-05
  2265.88892  0.000128518979  1.41571973E-05
  2278.21924  0.00012719963  1.38801988E-05
  2290.61646  0.000125893785  1.36086292E-05
  2303.08154  0.000124596554  1.33420208E-05
  2315.61426  0.000123310296  1.30803419E-05
  2328.21509  0.000122037301  1.28238034E-05
  2340.88452  0.00012077282  1.25720726E-05
  2353.6228  0.000119519493  1.23250429E-05
  2366.43066  0.000118279029  1.20828608E-05
  2379.30811  0.00011704753  1.18450444E-05
  2392.25562  0.000115827381  1.16117671E-05
  2405.27344  0.000114619725  1.13830747E-05
  2418.3623  0.000113421229  1.11587087E-05
  2431.52246  0.000112233887  1.09386128E-05
  2444.75391  0.000111058682  1.07228352E-05
  2458.05762  0.000109892877  1.0511033E-05
  2471.43359  0.000108738168  1.0303238E-05
  2484.88232  0.000107595188  1.00995276E-05
  2498.40454  0.000106461703  9.89963246E-06
  2512.  0.000105339139  9.70358178E-06
  2525.66968  0.000104227955  9.51139555E-06
  2539.41357  0.000103126331  9.32288276E-06
  2553.23242  0.000102035439  9.13799704E-06
  2567.12622  0.000100955607  8.95672292E-06
  2581.0957  9.98853138E-05  8.77881121E-06
  2595.14136  9.88255924E-05  8.6043492E-06
  2609.26343  9.77765812E-05  8.43332418E-06
  2623.46216  9.67369779E-05  8.26556243E-06
  2637.73828  9.57077573E-05  8.10104393E-06
  2652.09229  9.46889559E-05  7.93976051E-06
  2666.52393  9.36795477E-05  7.78158301E-06
  2681.03467  9.26802531E-05  7.62650052E-06
  2695.62378  9.16911231E-05  7.47442618E-06
  2710.29248  9.0711168E-05  7.32516719E-06
  2725.0415  8.97411082E-05  7.17880539E-06
  2739.87012  8.87809219E-05  7.03534624E-06
  2754.77979  8.78297506E-05  6.89466515E-06
  2769.77026  8.68883217E-05  6.75676665E-06
  2784.84277  8.5956417E-05  6.62157709E-06
  2799.99707  8.50333527E-05  6.48898913E-06
  2815.23364  8.41197689E-05  6.35901688E-06
  2830.55347  8.32154838E-05  6.23158394E-06
  2845.95654  8.23198206E-05  6.10657753E-06
  2861.44336  8.14333907E-05  5.98403767E-06
  2877.0144  8.05560121E-05  5.86391934E-06
  2892.67041  7.96870154E-05  5.74611886E-06
  2908.41162  7.88270481E-05  5.63065396E-06
  2924.23828  7.79758484E-05  5.5174396E-06
  2940.15088  7.71327323E-05  5.40639303E-06
  2956.15063  7.62983691E-05  5.29754834E-06
  2972.23682  7.54726207E-05  5.19087234E-06
  2988.41089  7.46547157E-05  5.08634275E-06
  3004.6731  7.38453746E-05  4.9839141E-06
  3021.02344  7.3044379E-05  4.88350634E-06
  3037.46313  7.22509067E-05  4.7850267E-06
  3053.99194  7.14658163E-05  4.68851931E-06
  3070.61108  7.06888095E-05  4.59391003E-06
  3087.32031  6.99189695E-05  4.50112202E-06
  3104.12085  6.91572568E-05  4.41020302E-06
  3121.01245  6.84034167E-05  4.32108845E-06
  3137.99585  6.7656285E-05  4.23372148E-06
  3155.07227  6.6917084E-05  4.14810393E-06
  3172.24121  6.6185552E-05  4.06415575E-06
  3189.50342  6.54602118E-05  3.98184375E-06
  3206.85986  6.47426423E-05  3.90118521E-06
  3224.31055  6.40325816E-05  3.82213329E-06
  3241.85645  6.33279997E-05  3.74462229E-06
  3259.49756  6.26310721E-05  3.66868221E-06
  3277.23486  6.19414495E-05  3.59425576E-06
  3295.0686  6.12562799E-05  3.52126153E-06
  3312.99951  6.05786845E-05  3.44975615E-06
  3331.02783  5.99080122E-05  3.37963093E-06
  3349.1543  5.92405413E-05  3.31090132E-06
  3367.37939  5.85804992E-05  3.24356597E-06
  3385.70361  5.79269108E-05  3.1775769E-06
  3404.12769  5.72744757E-05  3.11289E-06
  3422.6521  5.66293638E-05  3.04951482E-06
  3441.2771  5.59896544E-05  2.98738973E-06
  3460.00342  5.53466962E-05  2.92648497E-06
  3478.83179  5.47110649E-05  2.86682507E-06
  3497.76245  5.40774345E-05  2.80833342E-06
  3516.79639  5.34271603E-05  2.75099251E-06
  3535.93384  5.27846096E-05  2.69482621E-06
  3555.17529  5.20249268E-05  2.63977881E-06
  3574.52148  5.08273442E-05  2.58583395E-06
  3593.9729  4.96494104E-05  2.53298094E-06
  3613.53052  4.88211845E-05  3.39857729E-06
  3633.19385  4.89257982E-05  3.32951095E-06
  3652.96484  4.90225138E-05  3.2618384E-06
  3672.84326  4.89455488E-05  3.19552532E-06
  3692.82983  4.84866869E-05  3.13053556E-06
  3712.92505  4.80319759E-05  3.06687002E-06
  3733.12964  4.75715606E-05  3.00446914E-06
  3753.44409  4.70972518E-05  2.94332222E-06
  3773.86963  4.66275851E-05  2.88340493E-06
  3794.40576  4.61579621E-05  2.82467022E-06
  3815.05371  4.56860398E-05  2.76711739E-06
  3835.81421  4.5218887E-05  2.7107294E-06
  3856.6875  4.47536695E-05  2.65547578E-06
  3877.67456  4.42896853E-05  2.6013256E-06
  3898.77588  4.38304414E-05  2.54827228E-06
  3919.9917  4.33739478E-05  2.49627806E-06
  3941.323  4.29201209E-05  2.44532816E-06
  3962.77075  4.2470987E-05  2.39541532E-06
  3984.33496  4.20250581E-05  2.34648655E-06
  4006.01636  4.15825125E-05  2.29854209E-06
  4027.81641  4.11445508E-05  2.25156873E-06
  4049.73413  4.07100379E-05  2.20554762E-06
  4071.77173  4.02792284E-05  2.16047033E-06
  4093.9292  3.98529228E-05  2.11629867E-06
  4116.20703  3.94301678E-05  2.07301173E-06
  4138.60596  3.901132E-05  2.03059994E-06
  4161.12744  3.85968415E-05  1.98905514E-06
  4183.771  3.81859682E-05  1.94835002E-06
  4206.5376  3.77790566E-05  1.90847481E-06
  4229.42871  3.73764233E-05  1.8694119E-06
  4252.44385  3.69774243E-05  1.83113218E-06
  4275.58398  3.65824089E-05  1.79363747E-06
  4298.85107  3.61915445E-05  1.75689763E-06
  4322.24414  3.58042853E-05  1.72089892E-06
  4345.76465  3.54209806E-05  1.68563213E-06
  4369.41309  3.50417213E-05  1.65108429E-06
  4393.18994  3.46660017E-05  1.61723619E-06
  4417.09619  3.42941785E-05  1.58407749E-06
  4441.13281  3.39263061E-05  1.55159205E-06
  4465.30029  3.35619552E-05  1.51975883E-06
  4489.59912  3.32014242E-05  1.48857941E-06
  4514.02979  3.28447204E-05  1.45803222E-06
  4538.59424  3.24914363E-05  1.42810131E-06
  4563.29199  3.21419029E-05  1.39878671E-06
  4588.12402  3.17960948E-05  1.37006623E-06
  4613.09082  3.14536737E-05  1.34193101E-06
  4638.19385  3.11149015E-05  1.3143715E-06
  4663.43408  3.07797345E-05  1.28736781E-06
  4688.81104  3.04478963E-05  1.26091231E-06
  4714.32568  3.01196287E-05  1.23499842E-06
  4739.97998  2.97948518E-05  1.20961602E-06
  4765.77393  2.94733036E-05  1.18474384E-06
  4791.70752  2.91552351E-05  1.1603862E-06
  4817.78271  2.88405354E-05  1.13652231E-06
  4844.  2.85290098E-05  1.11314557E-06
  4870.35938  2.82208475E-05  1.09025234E-06
  4896.8623  2.7915994E-05  1.06782113E-06
  4923.50977  2.761426E-05  1.04584524E-06
  4950.30225  2.73157893E-05  1.02432034E-06
  4977.24023  2.70204873E-05  1.00323643E-06
  5004.32471  2.67282267E-05  9.82580218E-07
  5031.55664  2.64391238E-05  9.62350441E-07
  5058.93701  2.61530822E-05  9.42525048E-07
  5086.46631  2.58700275E-05  9.23104551E-07
  5114.14551  2.55900304E-05  9.04085937E-07
  5141.9751  2.53130347E-05  8.85454654E-07
  5169.95605  2.50389421E-05  8.67203596E-07
  5198.08984  2.47678108E-05  8.4932725E-07
  5226.37598  2.44995572E-05  8.31817715E-07
  5254.81641  2.42341248E-05  8.14668169E-07
  5283.41162  2.39715591E-05  7.97870086E-07
  5312.1626  2.37118038E-05  7.8141403E-07
  5341.06982  2.34548024E-05  7.65293635E-07
  5370.13428  2.32005859E-05  7.4950708E-07
  5399.35693  2.29490925E-05  7.34038849E-07
  5428.73877  2.27002874E-05  7.18881779E-07
  5458.28027  2.24541745E-05  7.0403803E-07
  5487.98291  2.22106792E-05  6.89491344E-07
  5517.84668  2.19697795E-05  6.75238937E-07
  5547.87305  2.17314901E-05  6.6127933E-07
  5578.06299  2.14957436E-05  6.4760718E-07
  5608.41699  2.12625218E-05  6.34216519E-07
  5638.93652  2.10318212E-05  6.21102288E-07
  5669.62207  2.08035817E-05  6.08256983E-07
  5700.47412  2.0577796E-05  5.95674862E-07
  5731.49512  2.03544514E-05  5.83353142E-07
  5762.68408  2.01335206E-05  5.71282783E-07
  5794.04248  1.99149727E-05  5.59462194E-07
  5825.57178  1.96987876E-05  5.47884667E-07
  5857.27295  1.94849126E-05  5.36544064E-07
  5889.14697  1.92733351E-05  5.25437656E-07
  5921.19336  1.9064064E-05  5.14558963E-07
  5953.41553  1.88570302E-05  5.03901902E-07
  5985.81152  1.86522429E-05  4.93463347E-07
  6018.38477  1.84496676E-05  4.83240854E-07
  6051.13525  1.82492768E-05  4.73229079E-07
  6084.06348  1.80510597E-05  4.63425494E-07
  6117.17139  1.78549908E-05  4.53825493E-07
  6150.45947  1.76610338E-05  4.44419896E-07
  6183.92871  1.74691722E-05  4.35208733E-07
  6217.57959  1.72793916E-05  4.26187341E-07
  6251.41406  1.70916501E-05  4.17351629E-07
  6285.43164  1.69059531E-05  4.0870006E-07
  6319.63525  1.67222715E-05  4.00227179E-07
  6354.0249  1.6540569E-05  3.91928154E-07
  6388.60156  1.6360822E-05  3.83794827E-07
  6423.3667  1.61830285E-05  3.75831121E-07
  6458.3208  1.60071668E-05  3.68033E-07
  6493.46484  1.58332186E-05  3.60397905E-07
  6528.80029  1.56611568E-05  3.52920921E-07
  6564.32861  1.54909485E-05  3.45595964E-07
  6600.04932  1.53225938E-05  3.38423405E-07
  6635.96533  1.51560607E-05  3.31399264E-07
  6672.07617  1.49913385E-05  3.24519078E-07
  6708.38379  1.48284043E-05  3.17781058E-07
  6744.88867  1.46672419E-05  3.11183101E-07
  6781.59229  1.45078329E-05  3.04720231E-07
  6818.49561  1.43501547E-05  2.98391086E-07
  6855.6001  1.4194191E-05  2.92194187E-07
  6892.90625  1.40399043E-05  2.86123793E-07
  6930.41553  1.38872929E-05  2.80180302E-07
  6968.12891  1.37363422E-05  2.74360048E-07
  7006.04736  1.35870368E-05  2.68658027E-07
  7044.17236  1.3439354E-05  2.63075236E-07
  7082.50439  1.32932782E-05  2.57608178E-07
  7121.04492  1.31487914E-05  2.52253187E-07
  7159.7959  1.30058743E-05  2.47009353E-07
  7198.75781  1.2864507E-05  2.41875028E-07
  7237.93066  1.27246822E-05  2.36845707E-07
  7277.31738  1.25863735E-05  2.31921121E-07
  7316.91895  1.24495737E-05  2.27099378E-07
  7356.73535  1.2314279E-05  2.22375945E-07
  7396.76855  1.21804542E-05  2.17751364E-07
  7437.01953  1.20480845E-05  2.1321614E-07
  7477.48926  1.19171627E-05  2.08751771E-07
  7518.17969  1.17876616E-05  2.0438074E-07
  7559.0918  1.1659562E-05  2.00092742E-07
  7600.22607  1.15328439E-05  1.95870967E-07
  7641.58447  1.1407501E-05  1.91738096E-07
  7683.16748  1.12835196E-05  1.87692365E-07
  7724.97705  1.11608779E-05  1.83730251E-07
  7767.01416  1.10395704E-05  1.79852279E-07
  7809.27979  1.09195744E-05  1.76055636E-07
  7851.77588  1.08008726E-05  1.72338446E-07
  7894.50244  1.06834623E-05  1.68700254E-07
  7937.4624  1.05673244E-05  1.65138317E-07
  7980.65576  1.04524497E-05  1.61651357E-07
  8024.08398  1.03388238E-05  1.58237768E-07
  8067.74902  1.02264357E-05  1.54895659E-07
  8111.65137  1.01152773E-05  1.51623766E-07
  8155.79199  1.00053303E-05  1.48420895E-07
  8200.17383  9.89656746E-06  1.45285455E-07
  8244.79688  9.7889797E-06  1.42215413E-07
  8289.66211  9.68256336E-06  1.39210698E-07
  8334.77246  9.57730663E-06  1.36268767E-07
  8380.12793  9.47320132E-06  1.33388596E-07
  8425.72949  9.37022833E-06  1.30569703E-07
  8471.58008  9.26837038E-06  1.27809628E-07
  8517.67969  9.16762019E-06  1.25107704E-07
  8564.03027  9.06796322E-06  1.22462822E-07
  8610.63379  8.96938946E-06  1.19873746E-07
  8657.49121  8.87188435E-06  1.17338971E-07
  8704.60254  8.77544517E-06  1.14857997E-07
  8751.9707  8.68005372E-06  1.12432573E-07
  8799.5957  8.58570365E-06  1.10059766E-07
  8847.48047  8.49237767E-06  1.07737364E-07
  8895.62598  8.40006942E-06  1.05468835E-07
  8944.03223  8.30876797E-06  1.03250585E-07
  8992.70312  8.21845788E-06  1.01078939E-07
  9041.63965  8.12913095E-06  9.89521638E-08
  9090.84082  8.0407799E-06  9.68701457E-08
  9140.31152  7.95338656E-06  9.48318544E-08
  9190.0498  7.86694727E-06  9.28364088E-08
  9240.05957  7.78144567E-06  9.08828E-08
  9290.3418  7.69687267E-06  8.89706087E-08
  9340.89648  7.6132269E-06  8.70973622E-08
  9391.72754  7.53048835E-06  8.52633804E-08
  9442.83398  7.44865201E-06  8.34683505E-08
  9494.21875  7.3676897E-06  8.17104464E-08
  9545.88379  7.28760506E-06  7.99897037E-08
  9597.83008  7.20839125E-06  7.8305213E-08
  9650.05859  7.13000873E-06  7.66555956E-08
  9702.57129  7.05247658E-06  7.50406386E-08
  9755.37012  6.97578616E-06  7.34598586E-08
  9808.45508  6.90001661E-06  7.20988993E-08
  9861.83105  6.8250697E-06  7.07728631E-08
  9915.49609  6.75093906E-06  6.94727049E-08
  9969.45312  6.67773884E-06  6.80081627E-08
  10023.7031  6.60533351E-06  6.65744508E-08
  10078.25  6.53370807E-06  6.51708163E-08
  10133.0928  6.46276067E-06  6.37961151E-08
  10188.2344  6.39258405E-06  6.24506811E-08
  10243.6748  6.32317142E-06  6.11335764E-08
  10299.418  6.25451912E-06  5.9843714E-08
  10355.4648  6.18661124E-06  5.85811044E-08
  10411.8164  6.11944188E-06  5.73453107E-08
  10468.4746  6.05300465E-06  5.6134926E-08
  10525.4414  5.98728911E-06  5.49502062E-08
  10582.7168  5.92228935E-06  5.37906253E-08
  10640.3057  5.85799853E-06  5.26549506E-08
  10698.207  5.79440575E-06  5.15434877E-08
  10756.4229  5.73150464E-06  5.0455391E-08
  10814.957  5.6692802E-06  4.93897971E-08
  10873.8076  5.60773424E-06  4.83469549E-08
  10932.9805  5.5468563E-06  4.73260222E-08
  10992.4746  5.48664639E-06  4.63264769E-08
  11052.292  5.42708995E-06  4.53480808E-08
  11112.4355  5.36818061E-06  4.43903403E-08
  11172.9062  5.30991292E-06  4.34523244E-08
  11233.7051  5.25227915E-06  4.25343387E-08
  11294.8359  5.19527111E-06  4.16356123E-08
  11356.2998  5.13888472E-06  4.07556193E-08
  11418.0977  5.08311132E-06  3.98944309E-08
  11480.2314  5.02794455E-06  3.90513293E-08
  11542.7041  4.97337896E-06  3.82259842E-08
  11605.5156  4.91940546E-06  3.74181255E-08
  11668.6689  4.86601903E-06  3.66272381E-08
  11732.166  4.81321104E-06  3.58529491E-08
  11796.0088  4.76097694E-06  3.50950806E-08
  11860.2002  4.70931127E-06  3.43531603E-08
  11924.7402  4.65820949E-06  3.36266943E-08
  11989.6309  4.6076625E-06  3.29157679E-08
  12054.874  4.55766849E-06  3.22197948E-08
  12120.4736  4.5082179E-06  3.15385016E-08
  12186.4297  4.45930573E-06  3.08717887E-08
  12252.7451  4.41092425E-06  3.02189243E-08
  12319.4209  4.36306937E-06  2.95797928E-08
  12386.459  4.3157338E-06  2.89542363E-08
  12453.8633  4.26891256E-06  2.83418871E-08
  12521.6328  4.222602E-06  2.77424199E-08
  12589.7725  4.17679166E-06  2.71557408E-08
  12658.2822  4.13148155E-06  2.65813789E-08
  12727.1641  4.08666347E-06  2.60190927E-08
  12796.4219  4.04233106E-06  2.54688537E-08
  12866.0566  3.99848341E-06  2.49301397E-08
  12936.0693  3.95511461E-06  2.44028939E-08
  13006.4639  3.91221556E-06  2.38868552E-08
  13077.2422  3.86978263E-06  2.3381526E-08
  13148.4043  3.82781127E-06  2.28869244E-08
  13219.9531  3.78629557E-06  2.24028547E-08
  13291.8926  3.74523233E-06  2.19289547E-08
  13364.2236  3.70461521E-06  2.14650679E-08
  13436.9482  3.66443783E-06  2.10111413E-08
  13510.0684  3.62469973E-06  2.05666399E-08
  13583.5859  3.58539319E-06  2.01315942E-08
  13657.5029  3.5465132E-06  1.97058956E-08
  13731.8242  3.50805703E-06  1.92890646E-08
  13806.5479  3.47001969E-06  1.88811562E-08
  13881.6797  3.4323939E-06  1.8481936E-08
  13957.2188  3.39517783E-06  1.80910096E-08
  14033.1709  3.35836467E-06  1.77083805E-08
  14109.5352  3.32195123E-06  1.73339512E-08
  14186.3145  3.28593455E-06  1.69674035E-08
  14263.5127  3.2503076E-06  1.66086611E-08
  14341.1299  3.21506786E-06  1.62576388E-08
  14419.1699  3.18021512E-06  1.59137965E-08
  14497.6357  3.14574027E-06  1.55773137E-08
  14576.5273  3.11163944E-06  1.52480695E-08
  14655.8486  3.07790833E-06  1.49257335E-08
  14735.6016  3.04454329E-06  1.46103387E-08
  14815.7881  3.01154E-06  1.43016603E-08
  14896.4111  2.9788971E-06  1.39993714E-08
  14977.4736  2.94660754E-06  1.37035432E-08
  15058.9766  2.91466881E-06  1.34139126E-08
  15140.9229  2.88307933E-06  1.31303075E-08
  15223.3154  2.85183251E-06  1.28527642E-08
  15306.1562  2.82092469E-06  1.25811708E-08
  15389.4482  2.79035226E-06  1.23152182E-08
  15473.1924  2.76011178E-06  1.20550006E-08
  15557.3936  2.73019918E-06  1.1800303E-08
  15642.0518  2.700614E-06  1.15509184E-08
  15727.1719  2.67134942E-06  1.13069127E-08
  15812.7539  2.6424018E-06  1.10680913E-08
  15898.8027  2.61376749E-06  1.08343068E-08
  15985.3193  2.58544333E-06  1.06055253E-08
  16072.3057  2.55742771E-06  1.03816351E-08
  16159.7676  2.52971813E-06  1.01624265E-08
  16247.7031  2.50230914E-06  9.94795268E-09
  16336.1191  2.47519711E-06  9.73800862E-09
  16425.0156  2.44837997E-06  9.53246371E-09
  16514.3965  2.42185297E-06  9.33135347E-09
  16604.2617  2.39561496E-06  9.1345056E-09
  16694.6191  2.36966116E-06  8.94182417E-09
  16785.4648  2.34398976E-06  8.75327455E-09
  16876.8066  2.31859644E-06  8.56871729E-09
  16968.6445  2.29348007E-06  8.38806802E-09
  17060.9844  2.26863494E-06  8.21128676E-09
  17153.8242  2.2440604E-06  8.03826428E-09
  17247.1719  2.21975233E-06  7.86887533E-09
  17341.0234  2.19570825E-06  7.70315367E-09
  17435.3887  2.17192451E-06  7.54093143E-09
  17530.2676  2.14839883E-06  7.38215578E-09
  17625.6621  2.12512805E-06  7.22681159E-09
  17721.5762  2.10211101E-06  7.07472525E-09
  17818.0117  2.07934454E-06  6.92586433E-09
  17914.9727  2.05682431E-06  6.78020085E-09
  18012.4609  2.03454829E-06  6.63761579E-09
  18110.4785  2.01251419E-06  6.49807719E-09
  18209.0293  1.9907186E-06  6.36153485E-09
  18308.1191  1.96915948E-06  6.2278791E-09
  18407.7461  1.94783502E-06  6.09705708E-09
  18507.916  1.92674133E-06  5.96906791E-09
  18608.6309  1.90587707E-06  5.84374726E-09
  18709.8926  1.88523927E-06  5.7211067E-09
  18811.707  1.86482453E-06  5.60110047E-09
  18914.0742  1.84463249E-06  5.48362022E-09
  19017.  1.82465897E-06  5.36866152E-09
  19120.4844  1.80490213E-06  5.25617416E-09
  19224.5332  1.78536015E-06  5.14605647E-09
  19329.1465  1.76602998E-06  5.03828579E-09
  19434.3301  1.74690922E-06  4.93285235E-09
  19540.0859  1.7279956E-06  4.82961759E-09
  19646.418  1.70928718E-06  4.72859663E-09
  19753.3281  1.69078112E-06  4.62976946E-09
  19860.8184  1.67247674E-06  4.5329358E-09
  19968.8965  1.65437029E-06  4.43818182E-09
  20077.5605  1.6364603E-06  4.34538316E-09
  20186.8164  1.61874516E-06  4.25457536E-09
  20296.6699  1.60122192E-06  4.16572421E-09
  20407.1152  1.58388877E-06  4.07879375E-09
  20518.166  1.56674332E-06  3.99370892E-09
  20629.8203  1.54978341E-06  3.91045374E-09
  20742.0801  1.53300789E-06  3.82900556E-09
  20854.9531  1.51641393E-06  3.74928222E-09
  20968.4414  1.49999983E-06  3.67128061E-09
  21082.5449  1.48376341E-06  3.59497077E-09
  21197.2695  1.46770435E-06  3.52026741E-09
  21312.6191  1.451819E-06  3.44718432E-09
  21428.5957  1.43610578E-06  3.37567263E-09
  21545.2051  1.42056308E-06  3.30569216E-09
  21662.4473  1.40518864E-06  3.23721738E-09
  21780.3262  1.38998087E-06  3.1702232E-09
  21898.8496  1.37493805E-06  3.10463855E-09
  22018.0176  1.36005769E-06  3.04046988E-09
  22137.832  1.34533911E-06  2.97768876E-09
  22258.3008  1.33078038E-06  2.91623459E-09
  22379.4238  1.31637933E-06  2.85611312E-09
  22501.2051  1.30213425E-06  2.7972793E-09
